255
226
16
14
17
24
15
111
25
43
60
1
1
0
0
255
226
16
19
16
104
16
10
25
43
60
1
1
0
0
255
226
16
3
15
2
16
32
25
43
60
1
1
0
0
255
226
16
5
15
24
16
6
25
43
60
1
1
0
0
255
243
143
127
64
127
127
255
226
16
26
17
9
15
102
25
43
60
1
1
0
0
255
226
16
31
17
36
15
120
25
43
60
1
1
0
0
255
226
16
12
15
58
16
25
25
43
60
1
1
0
0
255
226
16
9
15
5
16
10
25
43
60
1
1
0
0
255
243
143
127
64
127
127
255
226
16
31
16
102
15
102
25
43
60
1
1
0
0
255
226
16
42
17
75
15
107
25
43
60
1
1
0
0
255
226
16
24
15
118
16
17
25
43
60
1
1
0
0
255
226
16
12
14
121
16
11
25
43
60
1
1
0
0
255
243
143
127
64
127
127
255
226
16
28
16
52
15
105
25
43
60
1
1
0
0
255
226
16
45
17
87
15
100
25
43
60
1
1
0
0
255
226
16
32
16
49
16
10
25
43
60
1
1
0
0
255
226
16
15
14
121
16
17
25
43
60
1
1
0
0
255
243
143
127
64
127
127
255
226
16
24
15
119
15
113
25
43
60
1
1
0
0
255
226
16
45
17
76
15
95
25
43
60
1
1
0
0
255
226
16
38
16
108
15
127
25
43
60
1
1
0
0
255
226
16
17
15
12
16
19
25
43
60
1
1
0
0
255
243
143
127
64
127
127
255
226
16
16
15
67
15
118
25
43
60
1
1
0
0
255
226
16
36
17
47
15
92
25
43
60
1
1
0
0
255
226
16
35
17
23
15
118
25
43
60
1
1
0
0
255
226
16
15
15
35
16
19
25
43
60
1
1
0
0
255
226
16
11
15
20
16
0
25
43
60
1
1
0
0
255
243
143
127
64
127
127
255
226
16
32
17
0
15
98
25
43
60
1
1
0
0
255
226
16
37
17
51
15
110
25
43
60
1
1
0
0
255
226
16
17
15
71
16
20
25
43
60
1
1
0
0
255
226
16
7
14
114
16
10
25
43
60
1
1
0
0
255
243
143
127
64
127
127
255
226
16
22
16
68
15
103
25
43
60
1
1
0
0
255
226
16
36
17
67
15
104
25
43
60
1
1
0
0
255
226
16
19
15
127
16
16
25
43
60
1
1
0
0
255
226
16
3
14
101
16
16
25
43
60
1
1
0
0
255
243
143
127
64
127
127
255
226
16
16
16
5
15
112
25
43
60
1
1
0
0
255
226
16
32
17
62
15
102
25
43
60
1
1
0
0
255
226
16
21
16
53
16
12
25
43
60
1
1
0
0
255
226
16
3
14
105
16
24
25
43
60
1
1
0
0
255
243
143
127
64
127
127
255
226
16
8
15
73
15
122
25
43
60
1
1
0
0
255
226
16
27
17
41
15
100
25
43
60
1
1
0
0
255
226
16
23
16
107
16
3
25
43
60
1
1
0
0
255
226
16
4
15
1
16
28
25
43
60
1
1
0
0
255
243
143
127
64
127
127
255
226
16
5
15
27
16
4
25
43
60
1
1
0
0
255
226
16
23
17
7
15
104
25
43
60
1
1
0
0
255
226
16
27
17
24
15
124
25
43
60
1
1
0
0
255
226
16
6
15
39
16
29
25
43
60
1
1
0
0
255
243
143
127
64
127
127
255
226
15
126
14
119
16
14
25
43
60
1
1
0
0
255
226
16
15
16
93
15
108
25
43
60
1
1
0
0
255
226
16
25
17
54
15
116
25
43
60
1
1
0
0
255
226
16
6
15
91
16
27
25
43
60
1
1
0
0
255
226
15
126
14
105
16
21
25
43
60
1
1
0
0
255
243
143
127
64
127
127
255
226
16
14
16
42
15
114
25
43
60
1
1
0
0
255
226
16
29
17
69
15
111
25
43
60
1
1
0
0
255
226
16
16
16
23
16
21
25
43
60
1
1
0
0
255
226
15
127
14
103
16
27
25
43
60
1
1
0
0
255
243
143
127
64
127
127
255
226
16
7
15
113
15
122
25
43
60
1
1
0
0
255
226
16
26
17
63
15
107
25
43
60
1
1
0
0
255
226
16
21
16
85
16
12
25
43
60
1
1
0
0
255
226
16
1
14
121
16
29
25
43
60
1
1
0
0
255
243
143
127
64
127
127
255
226
16
2
15
59
16
2
25
43
60
1
1
0
0
255
226
16
23
17
35
15
106
25
43
60
1
1
0
0
255
226
16
22
17
5
16
5
25
43
60
1
1
0
0
255
226
16
3
15
22
16
31
25
43
60
1
1
0
0
255
243
143
127
64
127
127
255
226
15
127
15
15
16
10
25
43
60
1
1
0
0
255
226
16
19
16
126
15
107
25
43
60
1
1
0
0
255
226
16
27
17
44
15
122
25
43
60
1
1
0
0
255
226
16
8
15
64
16
31
25
43
60
1
1
0
0
255
243
143
127
64
127
127
255
226
16
0
14
116
16
19
25
43
60
1
1
0
0
255
226
16
16
16
77
15
113
25
43
60
1
1
0
0
255
226
16
27
17
69
15
116
25
43
60
1
1
0
0
255
226
16
13
15
122
16
26
25
43
60
1
1
0
0
255
243
143
127
64
127
127
255
226
16
0
14
108
16
26
25
43
60
1
1
0
0
255
226
16
11
16
22
15
119
25
43
60
1
1
0
0
255
226
16
28
17
71
15
111
25
43
60
1
1
0
0
255
226
16
14
16
45
16
19
25
43
60
1
1
0
0
255
226
15
126
14
104
16
29
25
43
60
1
1
0
0
255
243
143
127
64
127
127
255
226
16
3
15
86
15
126
25
43
60
1
1
0
0
255
226
16
23
17
51
15
106
25
43
60
1
1
0
0
255
226
16
18
16
102
16
10
25
43
60
1
1
0
0
255
226
15
125
14
125
16
32
25
43
60
1
1
0
0
255
243
143
127
64
127
127
255
226
15
127
15
37
16
7
25
43
60
1
1
0
0
255
226
16
19
17
21
15
107
25
43
60
1
1
0
0
255
226
16
23
17
22
16
0
25
43
60
1
1
0
0
255
226
16
2
15
37
16
33
25
43
60
1
1
0
0
255
243
143
127
64
127
127
255
226
15
123
14
127
16
15
25
43
60
1
1
0
0
255
226
16
13
16
103
15
108
25
43
60
1
1
0
0
255
226
16
21
17
49
15
117
25
43
60
1
1
0
0
255
226
16
5
15
81
16
27
25
43
60
1
1
0
0
255
243
143
127
64
127
127
255
226
15
122
14
102
16
21
25
43
60
1
1
0
0
255
226
16
9
16
47
15
112
25
43
60
1
1
0
0
255
226
16
22
17
63
15
111
25
43
60
1
1
0
0
255
226
16
9
16
11
16
23
25
43
60
1
1
0
0
255
243
143
127
64
127
127
255
226
15
121
14
100
16
28
25
43
60
1
1
0
0
255
226
16
2
15
116
15
122
25
43
60
1
1
0
0
255
226
16
21
17
59
15
108
25
43
60
1
1
0
0
255
226
16
16
16
70
16
14
25
43
60
1
1
0
0
255
243
143
127
64
127
127
255
226
15
126
14
111
16
30
25
43
60
1
1
0
0
255
226
16
2
15
62
16
1
25
43
60
1
1
0
0
255
226
16
21
17
37
15
106
25
43
60
1
1
0
0
255
226
16
21
16
122
16
6
25
43
60
1
1
0
0
255
226
15
127
15
11
16
32
25
43
60
1
1
0
0
255
243
143
127
64
127
127
255
226
15
120
15
15
16
11
25
43
60
1
1
0
0
255
226
16
14
16
123
15
108
25
43
60
1
1
0
0
255
226
16
18
17
28
15
125
25
43
60
1
1
0
0
255
226
15
126
15
45
16
31
25
43
60
1
1
0
0
255
243
143
127
64
127
127
255
226
15
119
14
109
16
17
25
43
60
1
1
0
0
255
226
16
10
16
76
15
110
25
43
60
1
1
0
0
255
226
16
20
17
55
15
116
25
43
60
1
1
0
0
255
226
16
3
15
99
16
28
25
43
60
1
1
0
0
255
243
143
127
64
127
127
255
226
15
122
14
97
16
24
25
43
60
1
1
0
0
255
226
16
7
16
20
15
117
25
43
60
1
1
0
0
255
226
16
22
17
60
15
111
25
43
60
1
1
0
0
255
226
16
9
16
28
16
20
25
43
60
1
1
0
0
255
243
143
127
64
127
127
255
226
15
120
14
97
16
29
25
43
60
1
1
0
0
255
226
16
0
15
90
15
124
25
43
60
1
1
0
0
255
226
16
18
17
50
15
106
25
43
60
1
1
0
0
255
226
16
16
16
90
16
10
25
43
60
1
1
0
0
255
243
143
127
64
127
127
255
226
15
124
14
118
16
30
25
43
60
1
1
0
0
255
226
15
126
15
35
16
3
25
43
60
1
1
0
0
255
226
16
16
17
15
15
105
25
43
60
1
1
0
0
255
226
16
18
17
8
16
1
25
43
60
1
1
0
0
255
243
143
127
64
127
127
255
226
15
126
15
20
16
30
25
43
60
1
1
0
0
255
226
15
120
14
123
16
11
25
43
60
1
1
0
0
255
226
16
12
16
101
15
107
25
43
60
1
1
0
0
255
226
16
19
17
39
15
120
25
43
60
1
1
0
0
255
226
16
0
15
64
16
30
25
43
60
1
1
0
0
255
243
143
127
64
127
127
255
226
15
121
14
98
16
20
25
43
60
1
1
0
0
255
226
16
8
16
48
15
112
25
43
60
1
1
0
0
255
226
16
19
17
54
15
114
25
43
60
1
1
0
0
255
226
16
4
15
123
16
26
25
43
60
1
1
0
0
255
243
143
127
64
127
127
255
226
15
117
14
93
16
28
25
43
60
1
1
0
0
255
226
16
0
15
119
15
122
25
43
60
1
1
0
0
255
226
16
16
17
52
15
109
25
43
60
1
1
0
0
255
226
16
6
16
49
16
18
25
43
60
1
1
0
0
255
243
143
127
64
127
127
255
226
15
114
14
100
16
33
25
43
60
1
1
0
0
255
226
15
118
15
62
16
3
25
43
60
1
1
0
0
255
226
16
7
17
29
15
108
25
43
60
1
1
0
0
255
226
16
2
16
90
16
6
25
43
60
1
1
0
0
255
243
143
127
64
127
127
255
226
15
110
14
98
16
28
25
43
60
1
1
0
0
255
226
15
107
14
103
16
2
25
43
60
1
1
0
0
255
226
15
127
16
79
15
101
25
43
60
1
1
0
0
255
226
16
5
16
105
15
121
25
43
60
1
1
0
0
255
243
143
127
64
127
127
255
226
15
116
15
3
16
27
25
43
60
1
1
0
0
255
226
15
112
14
85
16
13
25
43
60
1
1
0
0
255
226
16
3
16
59
15
112
25
43
60
1
1
0
0
255
226
16
14
17
34
15
125
25
43
60
1
1
0
0
255
243
143
127
64
127
127
255
226
15
124
15
78
16
37
25
43
60
1
1
0
0
255
226
15
110
14
83
16
33
25
43
60
1
1
0
0
255
226
15
124
16
17
15
125
25
43
60
1
1
0
0
255
226
16
12
17
53
15
119
25
43
60
1
1
0
0
255
226
16
2
16
19
16
28
25
43
60
1
1
0
0
255
243
143
127
64
127
127
255
226
15
117
14
99
16
34
25
43
60
1
1
0
0
255
226
16
0
15
103
16
2
25
43
60
1
1
0
0
255
226
16
22
17
61
15
115
25
43
60
1
1
0
0
255
226
16
19
16
91
16
19
25
43
60
1
1
0
0
255
243
143
127
64
127
127
255
226
16
2
15
1
16
37
25
43
60
1
1
0
0
255
226
16
6
15
63
16
10
25
43
60
1
1
0
0
255
226
16
26
17
43
15
112
25
43
60
1
1
0
0
255
226
16
27
17
20
16
8
25
43
60
1
1
0
0
255
243
143
127
64
127
127
255
226
16
5
15
34
16
38
25
43
60
1
1
0
0
255
226
16
1
15
18
16
17
25
43
60
1
1
0
0
255
226
16
19
16
127
15
113
25
43
60
1
1
0
0
255
226
16
27
17
53
15
125
25
43
60
1
1
0
0
255
243
143
127
64
127
127
255
226
16
7
15
75
16
32
25
43
60
1
1
0
0
255
226
16
0
14
118
16
21
25
43
60
1
1
0
0
255
226
16
19
16
73
15
112
25
43
60
1
1
0
0
255
226
16
31
17
68
15
113
25
43
60
1
1
0
0
255
243
143
127
64
127
127
255
226
16
13
15
126
16
22
25
43
60
1
1
0
0
255
226
16
2
14
113
16
15
25
43
60
1
1
0
0
255
226
16
21
16
33
15
94
25
43
60
1
1
0
0
255
226
16
39
17
98
15
64
25
43
60
1
1
0
0
255
243
143
127
64
127
127
255
226
16
35
16
79
15
87
25
43
60
1
1
0
0
255
226
16
14
14
100
15
92
25
43
60
1
1
0
0
255
226
15
123
15
15
15
66
25
43
60
1
1
0
0
255
226
15
90
16
24
15
78
25
43
60
1
1
0
0
255
226
15
33
14
119
16
32
25
43
60
1
1
0
0
255
243
143
127
64
127
127
255
226
14
90
12
38
17
7
25
43
60
1
1
0
0
255
226
14
63
11
120
17
57
25
43
60
1
1
0
0
255
226
14
117
13
79
17
75
25
43
60
1
1
0
0
255
226
15
68
14
44
17
108
25
43
60
1
1
0
0
255
243
143
127
64
127
127
255
226
15
115
13
70
18
6
25
43
59
1
1
0
0
255
226
16
16
14
30
17
106
25
43
59
1
1
0
0
255
226
16
46
16
99
17
59
25
43
59
1
1
0
0
255
226
16
58
18
3
17
42
25
43
59
1
1
0
0
255
243
143
127
64
127
127
255
226
16
36
16
99
17
61
25
43
59
1
1
0
0
255
226
16
25
16
19
17
27
25
43
59
1
1
0
0
255
226
16
35
17
85
16
84
25
43
59
1
1
0
0
255
226
16
45
18
83
16
43
25
43
59
1
1
0
0
255
243
143
127
64
127
127
255
226
16
24
16
126
16
49
25
43
59
1
1
0
0
255
226
16
3
15
51
16
24
25
43
59
1
1
0
0
255
226
16
11
16
43
15
96
25
43
59
1
1
0
0
255
226
16
32
17
105
15
66
25
43
59
1
1
0
0
255
243
143
127
64
127
127
255
226
16
24
16
113
15
90
25
43
59
1
1
0
0
255
226
16
3
15
16
15
100
25
43
59
1
1
0
0
255
226
16
9
15
87
15
67
25
43
59
1
1
0
0
255
226
16
30
17
62
15
42
25
43
59
1
1
0
0
255
243
143
127
64
127
127
255
226
16
29
17
22
15
68
25
43
59
1
1
0
0
255
226
16
5
15
32
15
96
25
43
59
1
1
0
0
255
226
16
3
15
27
15
76
25
43
59
1
1
0
0
255
226
16
24
17
8
15
46
25
43
59
1
1
0
0
255
226
16
29
17
50
15
63
25
43
59
1
1
0
0
255
243
143
127
64
127
127
255
226
16
10
15
70
15
98
25
43
59
1
1
0
0
255
226
16
1
14
124
15
86
25
43
59
1
1
0
0
255
226
16
19
16
84
15
52
25
43
59
1
1
0
0
255
226
16
30
17
66
15
59
25
43
59
1
1
0
0
255
243
143
127
64
127
127
255
226
16
12
15
115
15
101
25
43
59
1
1
0
0
255
226
15
126
14
105
15
100
25
43
59
1
1
0
0
255
226
16
10
16
21
15
66
25
43
59
1
1
0
0
255
226
16
22
17
63
15
58
25
43
59
1
1
0
0
255
243
143
127
64
127
127
255
226
16
12
16
38
15
97
25
43
59
1
1
0
0
255
226
15
122
14
100
15
108
25
43
59
1
1
0
0
255
226
16
0
15
86
15
78
25
43
59
1
1
0
0
255
226
16
18
17
48
15
60
25
43
59
1
1
0
0
255
243
143
127
64
127
127
255
226
16
14
16
94
15
94
25
43
59
1
1
0
0
255
226
15
122
14
120
15
116
25
43
59
1
1
0
0
255
226
15
123
15
32
15
93
25
43
59
1
1
0
0
255
226
16
16
17
13
15
67
25
43
59
1
1
0
0
255
243
143
127
64
127
127
255
226
16
18
17
7
15
91
25
43
59
1
1
0
0
255
226
15
123
15
18
15
123
25
43
59
1
1
0
0
255
226
15
115
14
113
15
104
25
43
59
1
1
0
0
255
226
16
6
16
87
15
73
25
43
59
1
1
0
0
255
243
143
127
64
127
127
255
226
16
13
17
33
15
85
25
43
59
1
1
0
0
255
226
15
122
15
61
15
125
25
43
59
1
1
0
0
255
226
15
109
14
84
15
119
25
43
59
1
1
0
0
255
226
15
126
16
30
15
84
25
43
59
1
1
0
0
255
226
16
10
17
38
15
83
25
43
59
1
1
0
0
255
243
143
127
64
127
127
255
226
15
121
15
105
15
123
25
43
59
1
1
0
0
255
226
15
106
14
70
15
127
25
43
59
1
1
0
0
255
226
15
116
15
91
15
96
25
43
59
1
1
0
0
255
226
16
3
17
28
15
83
25
43
59
1
1
0
0
255
243
143
127
64
127
127
255
226
15
123
16
32
15
121
25
43
59
1
1
0
0
255
226
15
101
14
75
16
7
25
43
59
1
1
0
0
255
226
15
105
15
29
15
108
25
43
59
1
1
0
0
255
226
15
125
16
127
15
86
25
43
59
1
1
0
0
255
243
143
127
64
127
127
255
226
15
121
16
75
15
116
25
43
59
1
1
0
0
255
226
15
98
14
91
16
14
25
43
59
1
1
0
0
255
226
15
94
14
100
15
120
25
43
59
1
1
0
0
255
226
15
114
16
81
15
91
25
43
59
1
1
0
0
255
243
143
127
64
127
127
255
226
15
116
16
108
15
109
25
43
59
1
1
0
0
255
226
15
95
14
122
16
17
25
43
59
1
1
0
0
255
226
15
86
14
58
16
5
25
43
59
1
1
0
0
255
226
15
103
16
25
15
101
25
43
59
1
1
0
0
255
243
143
127
64
127
127
255
226
15
114
16
125
15
108
25
43
59
1
1
0
0
255
226
15
95
15
39
16
22
25
43
59
1
1
0
0
255
226
15
80
14
35
16
19
25
43
59
1
1
0
0
255
226
15
93
15
87
15
115
25
43
59
1
1
0
0
255
243
143
127
64
127
127
255
226
15
109
17
1
15
109
25
43
59
1
1
0
0
255
226
15
97
15
99
16
20
25
43
59
1
1
0
0
255
226
15
79
14
42
16
29
25
43
59
1
1
0
0
255
226
15
89
15
37
15
127
25
43
59
1
1
0
0
255
226
15
109
16
121
15
112
25
43
59
1
1
0
0
255
243
143
127
64
127
127
255
226
15
102
16
27
16
19
25
43
59
1
1
0
0
255
226
15
83
14
60
16
41
25
43
59
1
1
0
0
255
226
15
85
14
114
16
15
25
43
59
1
1
0
0
255
226
15
109
16
97
15
116
25
43
59
1
1
0
0
255
243
143
127
64
127
127
255
226
15
113
16
83
16
14
25
43
59
1
1
0
0
255
226
15
93
14
101
16
43
25
43
59
1
1
0
0
255
226
15
95
14
88
16
24
25
43
59
1
1
0
0
255
226
15
120
16
75
15
119
25
43
59
1
1
0
0
255
243
143
127
64
127
127
255
226
16
2
17
12
16
2
25
43
59
1
1
0
0
255
226
15
115
15
44
16
38
25
43
59
1
1
0
0
255
226
15
109
14
88
16
28
25
43
59
1
1
0
0
255
226
16
0
16
44
15
118
25
43
59
1
1
0
0
255
243
143
127
64
127
127
255
226
16
17
17
49
15
118
25
43
59
1
1
0
0
255
226
16
5
15
115
16
30
25
43
59
1
1
0
0
255
226
15
124
14
94
16
28
25
43
59
1
1
0
0
255
226
16
12
16
4
15
120
25
43
59
1
1
0
0
255
243
143
127
64
127
127
255
226
16
34
17
67
15
106
25
43
59
1
1
0
0
255
226
16
24
16
65
16
14
25
43
59
1
1
0
0
255
226
16
7
14
122
16
24
25
43
59
1
1
0
0
255
226
16
14
15
92
15
120
25
43
59
1
1
0
0
255
243
143
127
64
127
127
255
226
16
37
17
62
15
97
25
43
59
1
1
0
0
255
226
16
39
17
6
15
126
25
43
59
1
1
0
0
255
226
16
19
15
30
16
20
25
43
59
1
1
0
0
255
226
16
20
15
54
15
124
25
43
59
1
1
0
0
255
226
16
38
17
36
15
93
25
43
59
1
1
0
0
255
243
143
127
64
127
127
255
226
16
41
17
51
15
112
25
43
59
1
1
0
0
255
226
16
22
15
66
16
18
25
43
59
1
1
0
0
255
226
16
16
15
16
16
2
25
43
59
1
1
0
0
255
226
16
35
16
115
15
96
25
43
59
1
1
0
0
255
243
143
127
64
127
127
255
226
16
43
17
77
15
104
25
43
59
1
1
0
0
255
226
16
24
15
118
16
14
25
43
59
1
1
0
0
255
226
16
13
14
127
16
8
25
43
59
1
1
0
0
255
226
16
29
16
60
15
100
25
43
59
1
1
0
0
255
243
143
127
64
127
127
255
226
16
44
17
84
15
97
25
43
59
1
1
0
0
255
226
16
29
16
38
16
9
25
43
59
1
1
0
0
255
226
16
9
14
116
16
13
25
43
59
1
1
0
0
255
226
16
19
15
122
15
109
25
43
59
1
1
0
0
255
243
143
127
64
127
127
255
226
16
37
17
70
15
94
25
43
59
1
1
0
0
255
226
16
31
16
95
16
0
25
43
59
1
1
0
0
255
226
16
10
15
3
16
17
25
43
59
1
1
0
0
255
226
16
11
15
66
15
118
25
43
59
1
1
0
0
255
243
143
127
64
127
127
255
226
16
29
17
41
15
94
25
43
59
1
1
0
0
255
226
16
28
17
11
15
120
25
43
59
1
1
0
0
255
226
16
10
15
27
16
21
25
43
59
1
1
0
0
255
226
16
6
15
18
16
1
25
43
59
1
1
0
0
255
243
143
127
64
127
127
255
226
16
24
16
123
15
97
25
43
59
1
1
0
0
255
226
16
28
17
45
15
112
25
43
59
1
1
0
0
255
226
16
9
15
66
16
21
25
43
59
1
1
0
0
255
226
16
3
14
115
16
11
25
43
59
1
1
0
0
255
226
16
18
16
71
15
104
25
43
59
1
1
0
0
255
243
143
127
64
127
127
255
226
16
28
17
60
15
108
25
43
59
1
1
0
0
255
226
16
11
15
116
16
19
25
43
59
1
1
0
0
255
226
15
127
14
102
16
20
25
43
59
1
1
0
0
255
226
16
11
16
14
15
111
25
43
59
1
1
0
0
255
243
143
127
64
127
127
255
226
16
26
17
65
15
103
25
43
59
1
1
0
0
255
226
16
18
16
49
16
12
25
43
59
1
1
0
0
255
226
16
2
14
110
16
25
25
43
59
1
1
0
0
255
226
16
5
15
87
15
120
25
43
59
1
1
0
0
255
243
143
127
64
127
127
255
226
16
24
17
49
15
100
25
43
59
1
1
0
0
255
226
16
19
16
101
16
4
25
43
59
1
1
0
0
255
226
15
126
15
1
16
26
25
43
59
1
1
0
0
255
226
15
127
15
41
16
2
25
43
59
1
1
0
0
255
243
143
127
64
127
127
255
226
16
21
17
21
15
102
25
43
59
1
1
0
0
255
226
16
25
17
23
15
124
25
43
59
1
1
0
0
255
226
16
2
15
38
16
27
25
43
59
1
1
0
0
255
226
15
126
15
1
16
11
25
43
59
1
1
0
0
255
243
143
127
64
127
127
255
226
16
17
16
107
15
105
25
43
59
1
1
0
0
255
226
16
26
17
58
15
116
25
43
59
1
1
0
0
255
226
16
10
15
91
16
25
25
43
59
1
1
0
0
255
226
15
127
14
112
16
18
25
43
59
1
1
0
0
255
243
143
127
64
127
127
255
226
16
13
16
49
15
112
25
43
59
1
1
0
0
255
226
16
26
17
68
15
107
25
43
59
1
1
0
0
255
226
16
12
16
18
16
18
25
43
59
1
1
0
0
255
226
15
125
14
108
16
22
25
43
59
1
1
0
0
255
226
16
9
15
125
15
116
25
43
59
1
1
0
0
255
243
143
127
64
127
127
255
226
16
27
17
69
15
102
25
43
59
1
1
0
0
255
226
16
17
16
80
16
10
25
43
59
1
1
0
0
255
226
15
127
14
123
16
28
25
43
59
1
1
0
0
255
226
16
5
15
71
15
127
25
43
59
1
1
0
0
255
243
143
127
64
127
127
255
226
16
25
17
46
15
104
25
43
59
1
1
0
0
255
226
16
22
17
2
16
3
25
43
59
1
1
0
0
255
226
16
1
15
20
16
31
25
43
59
1
1
0
0
255
226
15
127
15
27
16
9
25
43
59
1
1
0
0
255
243
143
127
64
127
127
255
226
16
20
17
12
15
107
25
43
59
1
1
0
0
255
226
16
26
17
41
15
123
25
43
59
1
1
0
0
255
226
16
6
15
58
16
29
25
43
59
1
1
0
0
255
226
15
125
14
120
16
15
25
43
59
1
1
0
0
255
243
143
127
64
127
127
255
226
16
15
16
86
15
108
25
43
59
1
1
0
0
255
226
16
27
17
66
15
113
25
43
59
1
1
0
0
255
226
16
11
15
113
16
24
25
43
59
1
1
0
0
255
226
15
125
14
104
16
21
25
43
59
1
1
0
0
255
243
143
127
64
127
127
255
226
16
9
16
25
15
114
25
43
59
1
1
0
0
255
226
16
24
17
68
15
106
25
43
59
1
1
0
0
255
226
16
11
16
42
16
18
25
43
59
1
1
0
0
255
226
15
126
14
109
16
28
25
43
59
1
1
0
0
255
243
143
127
64
127
127
255
226
16
7
15
97
15
123
25
43
59
1
1
0
0
255
226
16
26
17
53
15
104
25
43
59
1
1
0
0
255
226
16
20
16
98
16
7
25
43
59
1
1
0
0
255
226
15
127
14
127
16
28
25
43
59
1
1
0
0
255
226
16
0
15
48
16
1
25
43
59
1
1
0
0
255
243
143
127
64
127
127
255
226
16
20
17
27
15
103
25
43
59
1
1
0
0
255
226
16
22
17
15
15
127
25
43
59
1
1
0
0
255
226
16
1
15
30
16
29
25
43
59
1
1
0
0
255
226
15
126
15
5
16
12
25
43
59
1
1
0
0
255
243
143
127
64
127
127
255
226
16
16
16
110
15
108
25
43
59
1
1
0
0
255
226
16
24
17
49
15
119
25
43
59
1
1
0
0
255
226
16
5
15
76
16
27
25
43
59
1
1
0
0
255
226
15
122
14
107
16
20
25
43
59
1
1
0
0
255
243
143
127
64
127
127
255
226
16
9
16
55
15
111
25
43
59
1
1
0
0
255
226
16
23
17
63
15
111
25
43
59
1
1
0
0
255
226
16
9
16
1
16
20
25
43
59
1
1
0
0
255
226
15
124
14
99
16
23
25
43
59
1
1
0
0
255
243
143
127
64
127
127
255
226
16
5
15
123
15
117
25
43
59
1
1
0
0
255
226
16
24
17
60
15
105
25
43
59
1
1
0
0
255
226
16
17
16
64
16
13
25
43
59
1
1
0
0
255
226
15
124
14
112
16
28
25
43
59
1
1
0
0
255
243
143
127
64
127
127
255
226
16
1
15
70
15
125
25
43
59
1
1
0
0
255
226
16
22
17
39
15
102
25
43
59
1
1
0
0
255
226
16
20
16
111
16
3
25
43
59
1
1
0
0
255
226
16
0
15
4
16
29
25
43
59
1
1
0
0
255
243
143
127
64
127
127
255
226
15
127
15
23
16
6
25
43
59
1
1
0
0
255
226
16
17
17
1
15
105
25
43
59
1
1
0
0
255
226
16
22
17
28
15
123
25
43
59
1
1
0
0
255
226
16
0
15
45
16
28
25
43
59
1
1
0
0
255
243
143
127
64
127
127
255
226
15
121
14
117
16
13
25
43
59
1
1
0
0
255
226
16
12
16
85
15
107
25
43
59
1
1
0
0
255
226
16
24
17
53
15
112
25
43
59
1
1
0
0
255
226
16
7
15
94
16
24
25
43
59
1
1
0
0
255
226
15
122
14
98
16
20
25
43
59
1
1
0
0
255
243
143
127
64
127
127
255
226
16
8
16
27
15
113
25
43
59
1
1
0
0
255
226
16
21
17
61
15
108
25
43
59
1
1
0
0
255
226
16
8
16
24
16
19
25
43
59
1
1
0
0
255
226
15
120
14
100
16
27
25
43
59
1
1
0
0
255
243
143
127
64
127
127
255
226
16
1
15
99
15
122
25
43
59
1
1
0
0
255
226
16
21
17
54
15
105
25
43
59
1
1
0
0
255
226
16
11
16
80
16
10
25
43
59
1
1
0
0
255
226
15
118
14
108
16
27
25
43
59
1
1
0
0
255
243
143
127
64
127
127
255
226
15
119
15
39
15
127
25
43
59
1
1
0
0
255
226
16
10
17
20
15
101
25
43
59
1
1
0
0
255
226
16
9
16
124
15
127
25
43
59
1
1
0
0
255
226
15
117
15
11
16
28
25
43
59
1
1
0
0
255
243
143
127
64
127
127
255
226
15
112
14
122
16
7
25
43
59
1
1
0
0
255
226
16
2
16
92
15
101
25
43
59
1
1
0
0
255
226
16
8
17
6
15
113
25
43
59
1
1
0
0
255
226
15
115
15
19
16
19
25
43
59
1
1
0
0
255
243
143
127
64
127
127
255
226
15
101
14
58
16
8
25
43
59
1
1
0
0
255
226
15
120
16
17
15
102
25
43
59
1
1
0
0
255
226
16
9
17
25
15
104
25
43
59
1
1
0
0
255
226
15
122
15
93
16
19
25
43
59
1
1
0
0
255
226
15
107
14
73
16
25
25
43
59
1
1
0
0
255
243
143
127
64
127
127
255
226
15
120
15
113
15
124
25
43
59
1
1
0
0
255
226
16
8
17
44
15
117
25
43
59
1
1
0
0
255
226
16
0
16
35
16
27
25
43
59
1
1
0
0
255
226
15
112
14
89
16
38
25
43
59
1
1
0
0
255
243
143
127
64
127
127
255
226
15
123
15
66
16
4
25
43
59
1
1
0
0
255
226
16
18
17
40
15
109
25
43
59
1
1
0
0
255
226
16
16
16
106
16
8
25
43
59
1
1
0
0
255
226
15
125
15
5
16
32
25
43
59
1
1
0
0
255
243
143
127
64
127
127
255
226
15
127
15
38
16
8
25
43
59
1
1
0
0
255
226
16
21
17
25
15
107
25
43
59
1
1
0
0
255
226
16
25
17
38
16
1
25
43
59
1
1
0
0
255
226
16
6
15
51
16
34
25
43
59
1
1
0
0
255
243
143
127
64
127
127
255
226
16
0
15
4
16
18
25
43
59
1
1
0
0
255
226
16
18
16
104
15
112
25
43
59
1
1
0
0
255
226
16
29
17
63
15
121
25
43
59
1
1
0
0
255
226
16
11
15
97
16
32
25
43
59
1
1
0
0
255
243
143
127
64
127
127
255
226
15
127
14
111
16
26
25
43
59
1
1
0
0
255
226
16
13
16
45
15
118
25
43
59
1
1
0
0
255
226
16
28
17
68
15
112
25
43
59
1
1
0
0
255
226
16
14
16
20
16
22
25
43
59
1
1
0
0
255
243
143
127
64
127
127
255
226
16
0
14
105
16
28
25
43
59
1
1
0
0
255
226
16
11
15
118
15
122
25
43
59
1
1
0
0
255
226
16
30
17
67
15
103
25
43
59
1
1
0
0
255
226
16
27
16
93
15
127
25
43
59
1
1
0
0
255
226
16
8
15
17
15
127
25
43
59
1
1
0
0
255
243
143
127
64
127
127
255
226
16
16
15
94
15
79
25
43
59
1
1
0
0
255
226
16
42
17
51
15
43
25
43
59
1
1
0
0
255
226
16
33
16
108
15
65
25
43
59
1
1
0
0
255
226
15
108
14
60
15
106
25
43
59
1
1
0
0
255
243
143
127
64
127
127
255
226
15
51
13
96
15
123
25
43
59
1
1
0
0
255
226
15
18
14
106
16
22
25
43
59
1
1
0
0
255
226
14
109
14
44
16
122
25
43
59
1
1
0
0
255
226
14
82
12
6
17
94
25
43
59
1
1
0
0
255
243
143
127
64
127
127
255
226
14
126
11
65
17
118
25
43
59
1
1
0
0
255
226
15
92
14
5
17
85
25
43
59
1
1
0
0
255
226
16
29
16
7
17
79
25
43
60
1
1
0
0
255
226
16
38
15
52
17
104
25
43
60
1
1
0
0
255
243
143
127
64
127
127
255
226
16
30
14
120
17
85
25
43
60
1
1
0
0
255
226
16
44
16
105
17
28
25
43
60
1
1
0
0
255
226
16
57
18
81
17
0
25
43
60
1
1
0
0
255
226
16
42
17
81
17
10
25
43
60
1
1
0
0
255
243
143
127
64
127
127
255
226
16
20
16
5
16
112
25
43
60
1
1
0
0
255
226
16
22
16
85
16
44
25
43
60
1
1
0
0
255
226
16
35
18
12
15
119
25
43
60
1
1
0
0
255
226
16
27
17
36
15
125
25
43
60
1
1
0
0
255
243
143
127
64
127
127
255
226
16
5
15
47
15
127
25
43
60
1
1
0
0
255
226
16
8
15
75
15
89
25
43
60
1
1
0
0
255
226
16
26
17
46
15
53
25
43
60
1
1
0
0
255
226
16
29
17
46
15
70
25
43
60
1
1
0
0
255
226
16
10
15
57
15
99
25
43
60
1
1
0
0
255
243
143
127
64
127
127
255
226
16
6
15
21
15
80
25
43
60
1
1
0
0
255
226
16
25
16
122
15
46
25
43
60
1
1
0
0
255
226
16
32
17
66
15
55
25
43
60
1
1
0
0
255
226
16
13
15
94
15
93
25
43
60
1
1
0
0
255
243
143
127
64
127
127
255
226
16
1
14
117
15
86
25
43
60
1
1
0
0
255
226
16
16
16
58
15
53
25
43
60
1
1
0
0
255
226
16
30
17
67
15
53
25
43
60
1
1
0
0
255
226
16
15
16
13
15
93
25
43
60
1
1
0
0
255
243
143
127
64
127
127
255
226
15
125
14
103
15
96
25
43
60
1
1
0
0
255
226
16
7
15
119
15
63
25
43
60
1
1
0
0
255
226
16
24
17
59
15
50
25
43
60
1
1
0
0
255
226
16
15
16
67
15
88
25
43
60
1
1
0
0
255
243
143
127
64
127
127
255
226
15
124
14
110
15
106
25
43
60
1
1
0
0
255
226
16
0
15
61
15
78
25
43
60
1
1
0
0
255
226
16
23
17
33
15
55
25
43
60
1
1
0
0
255
226
16
20
16
112
15
84
25
43
60
1
1
0
0
255
243
143
127
64
127
127
255
226
15
126
15
2
15
112
25
43
60
1
1
0
0
255
226
15
123
15
7
15
92
25
43
60
1
1
0
0
255
226
16
14
16
116
15
63
25
43
60
1
1
0
0
255
226
16
17
17
18
15
82
25
43
60
1
1
0
0
255
243
143
127
64
127
127
255
226
15
126
15
36
15
120
25
43
60
1
1
0
0
255
226
15
117
14
100
15
106
25
43
60
1
1
0
0
255
226
16
6
16
63
15
74
25
43
60
1
1
0
0
255
226
16
18
17
40
15
81
25
43
60
1
1
0
0
255
226
16
2
15
86
15
122
25
43
60
1
1
0
0
255
243
143
127
64
127
127
255
226
15
116
14
82
15
119
25
43
60
1
1
0
0
255
226
16
0
16
0
15
84
25
43
60
1
1
0
0
255
226
16
14
17
38
15
78
25
43
60
1
1
0
0
255
226
16
1
16
9
15
119
25
43
60
1
1
0
0
255
243
143
127
64
127
127
255
226
15
112
14
77
16
0
25
43
60
1
1
0
0
255
226
15
120
15
66
15
96
25
43
60
1
1
0
0
255
226
16
8
17
22
15
77
25
43
60
1
1
0
0
255
226
16
1
16
57
15
112
25
43
60
1
1
0
0
255
243
143
127
64
127
127
255
226
15
110
14
89
16
6
25
43
60
1
1
0
0
255
226
15
112
15
10
15
110
25
43
60
1
1
0
0
255
226
16
3
16
114
15
83
25
43
60
1
1
0
0
255
226
16
1
16
99
15
107
25
43
60
1
1
0
0
255
243
143
127
64
127
127
255
226
15
106
14
110
16
8
25
43
60
1
1
0
0
255
226
15
102
14
86
15
118
25
43
60
1
1
0
0
255
226
15
120
16
63
15
87
25
43
60
1
1
0
0
255
226
15
123
16
122
15
101
25
43
60
1
1
0
0
255
243
143
127
64
127
127
255
226
15
102
15
18
16
12
25
43
60
1
1
0
0
255
226
15
90
14
51
16
5
25
43
60
1
1
0
0
255
226
15
106
16
0
15
100
25
43
60
1
1
0
0
255
226
15
122
17
1
15
101
25
43
60
1
1
0
0
255
243
143
127
64
127
127
255
226
15
105
15
63
16
13
25
43
60
1
1
0
0
255
226
15
85
14
31
16
17
25
43
60
1
1
0
0
255
226
15
93
15
58
15
112
25
43
60
1
1
0
0
255
226
15
111
16
119
15
101
25
43
60
1
1
0
0
255
226
15
101
15
116
16
10
25
43
60
1
1
0
0
255
243
143
127
64
127
127
255
226
15
84
14
39
16
28
25
43
60
1
1
0
0
255
226
15
90
15
2
16
0
25
43
60
1
1
0
0
255
226
15
107
16
100
15
107
25
43
60
1
1
0
0
255
226
15
105
16
40
16
9
25
43
60
1
1
0
0
255
243
143
127
64
127
127
255
226
15
87
14
62
16
35
25
43
60
1
1
0
0
255
226
15
86
14
85
16
14
25
43
60
1
1
0
0
255
226
15
104
16
69
15
114
25
43
60
1
1
0
0
255
226
15
108
16
92
16
6
25
43
60
1
1
0
0
255
243
143
127
64
127
127
255
226
15
87
14
110
16
42
25
43
60
1
1
0
0
255
226
15
84
14
57
16
29
25
43
60
1
1
0
0
255
226
15
109
16
32
15
122
25
43
60
1
1
0
0
255
226
15
122
17
2
16
1
25
43
60
1
1
0
0
255
243
143
127
64
127
127
255
226
15
108
15
47
16
41
25
43
60
1
1
0
0
255
226
15
99
14
61
16
35
25
43
60
1
1
0
0
255
226
15
119
15
127
15
127
25
43
60
1
1
0
0
255
226
16
8
17
37
15
120
25
43
60
1
1
0
0
255
243
143
127
64
127
127
255
226
16
1
16
5
16
28
25
43
60
1
1
0
0
255
226
15
117
14
85
16
34
25
43
60
1
1
0
0
255
226
16
1
15
90
16
0
25
43
60
1
1
0
0
255
226
16
22
17
45
15
109
25
43
60
1
1
0
0
255
243
143
127
64
127
127
255
226
16
19
16
76
16
12
25
43
60
1
1
0
0
255
226
16
3
14
117
16
29
25
43
60
1
1
0
0
255
226
16
12
15
56
16
0
25
43
60
1
1
0
0
255
226
16
34
17
36
15
101
25
43
60
1
1
0
0
255
243
143
127
64
127
127
255
226
16
36
17
19
15
124
25
43
60
1
1
0
0
255
226
16
16
15
37
16
23
25
43
60
1
1
0
0
255
226
16
13
15
27
16
1
25
43
60
1
1
0
0
255
226
16
32
17
10
15
97
25
43
60
1
1
0
0
255
226
16
43
17
65
15
111
25
43
60
1
1
0
0
255
243
143
127
64
127
127
255
226
16
25
15
88
16
18
25
43
60
1
1
0
0
255
226
16
13
15
3
16
6
25
43
60
1
1
0
0
255
226
16
31
16
89
15
99
25
43
60
1
1
0
0
255
226
16
45
17
85
15
99
25
43
60
1
1
0
0
255
243
143
127
64
127
127
255
226
16
29
16
14
16
11
25
43
60
1
1
0
0
255
226
16
12
14
119
16
11
25
43
60
1
1
0
0
255
226
16
24
16
29
15
104
25
43
60
1
1
0
0
255
226
16
44
17
83
15
94
25
43
60
1
1
0
0
255
243
143
127
64
127
127
255
226
16
32
16
67
16
2
25
43
60
1
1
0
0
255
226
16
14
14
120
16
14
25
43
60
1
1
0
0
255
226
16
21
15
96
15
113
25
43
60
1
1
0
0
255
226
16
40
17
63
15
94
25
43
60
1
1
0
0
255
243
143
127
64
127
127
255
226
16
35
16
119
15
125
25
43
60
1
1
0
0
255
226
16
15
15
11
16
19
25
43
60
1
1
0
0
255
226
16
14
15
40
15
124
25
43
60
1
1
0
0
255
226
16
32
17
23
15
96
25
43
60
1
1
0
0
255
243
143
127
64
127
127
255
226
16
36
17
31
15
116
25
43
60
1
1
0
0
255
226
16
12
15
43
16
20
25
43
60
1
1
0
0
255
226
16
6
14
127
16
4
25
43
60
1
1
0
0
255
226
16
23
16
99
15
98
25
43
60
1
1
0
0
255
243
143
127
64
127
127
255
226
16
32
17
57
15
108
25
43
60
1
1
0
0
255
226
16
12
15
88
16
18
25
43
60
1
1
0
0
255
226
16
2
14
106
16
12
25
43
60
1
1
0
0
255
226
16
19
16
47
15
106
25
43
60
1
1
0
0
255
226
16
33
17
68
15
103
25
43
60
1
1
0
0
255
243
143
127
64
127
127
255
226
16
17
16
18
16
14
25
43
60
1
1
0
0
255
226
15
125
14
100
16
21
25
43
60
1
1
0
0
255
226
16
8
15
111
15
116
25
43
60
1
1
0
0
255
226
16
29
17
58
15
101
25
43
60
1
1
0
0
255
243
143
127
64
127
127
255
226
16
23
16
78
16
9
25
43
60
1
1
0
0
255
226
16
3
14
118
16
27
25
43
60
1
1
0
0
255
226
16
3
15
60
16
0
25
43
60
1
1
0
0
255
226
16
25
17
33
15
104
25
43
60
1
1
0
0
255
243
143
127
64
127
127
255
226
16
24
16
124
16
2
25
43
60
1
1
0
0
255
226
16
2
15
13
16
30
25
43
60
1
1
0
0
255
226
15
127
15
15
16
9
25
43
60
1
1
0
0
255
226
16
20
16
127
15
106
25
43
60
1
1
0
0
255
243
143
127
64
127
127
255
226
16
27
17
42
15
122
25
43
60
1
1
0
0
255
226
16
5
15
59
16
30
25
43
60
1
1
0
0
255
226
15
125
14
116
16
17
25
43
60
1
1
0
0
255
226
16
16
16
81
15
109
25
43
60
1
1
0
0
255
243
143
127
64
127
127
255
226
16
27
17
66
15
112
25
43
60
1
1
0
0
255
226
16
14
15
114
16
23
25
43
60
1
1
0
0
255
226
16
1
14
103
16
21
25
43
60
1
1
0
0
255
226
16
12
16
21
15
116
25
43
60
1
1
0
0
255
243
143
127
64
127
127
255
226
16
28
17
70
15
107
25
43
60
1
1
0
0
255
226
16
18
16
50
16
17
25
43
60
1
1
0
0
255
226
16
1
14
112
16
28
25
43
60
1
1
0
0
255
226
16
7
15
93
15
124
25
43
60
1
1
0
0
255
226
16
25
17
52
15
104
25
43
60
1
1
0
0
255
243
143
127
64
127
127
255
226
16
20
16
100
16
9
25
43
60
1
1
0
0
255
226
16
0
15
1
16
30
25
43
60
1
1
0
0
255
226
16
2
15
46
16
6
25
43
60
1
1
0
0
255
226
16
24
17
30
15
106
25
43
60
1
1
0
0
255
243
143
127
64
127
127
255
226
16
24
17
24
16
0
25
43
60
1
1
0
0
255
226
16
4
15
35
16
30
25
43
60
1
1
0
0
255
226
15
127
15
4
16
12
25
43
60
1
1
0
0
255
226
16
19
16
110
15
107
25
43
60
1
1
0
0
255
243
143
127
64
127
127
255
226
16
25
17
55
15
117
25
43
60
1
1
0
0
255
226
16
6
15
80
16
26
25
43
60
1
1
0
0
255
226
15
123
14
106
16
18
25
43
60
1
1
0
0
255
226
16
11
16
55
15
111
25
43
60
1
1
0
0
255
243
143
127
64
127
127
255
226
16
26
17
71
15
111
25
43
60
1
1
0
0
255
226
16
12
16
14
16
23
25
43
60
1
1
0
0
255
226
15
125
14
104
16
27
25
43
60
1
1
0
0
255
226
16
8
15
123
15
120
25
43
60
1
1
0
0
255
243
143
127
64
127
127
255
226
16
25
17
62
15
105
25
43
60
1
1
0
0
255
226
16
17
16
67
16
13
25
43
60
1
1
0
0
255
226
15
126
14
111
16
29
25
43
60
1
1
0
0
255
226
16
1
15
65
16
0
25
43
60
1
1
0
0
255
226
16
22
17
38
15
105
25
43
60
1
1
0
0
255
243
143
127
64
127
127
255
226
16
21
16
121
16
6
25
43
60
1
1
0
0
255
226
15
127
15
9
16
31
25
43
60
1
1
0
0
255
226
15
127
15
21
16
9
25
43
60
1
1
0
0
255
226
16
17
17
4
15
105
25
43
60
1
1
0
0
255
243
143
127
64
127
127
255
226
16
23
17
35
15
123
25
43
60
1
1
0
0
255
226
16
3
15
51
16
30
25
43
60
1
1
0
0
255
226
15
124
14
112
16
18
25
43
60
1
1
0
0
255
226
16
14
16
78
15
111
25
43
60
1
1
0
0
255
243
143
127
64
127
127
255
226
16
25
17
55
15
117
25
43
60
1
1
0
0
255
226
16
6
15
100
16
28
25
43
60
1
1
0
0
255
226
15
123
14
99
16
24
25
43
60
1
1
0
0
255
226
16
9
16
26
15
117
25
43
60
1
1
0
0
255
243
143
127
64
127
127
255
226
16
28
17
64
15
109
25
43
60
1
1
0
0
255
226
16
14
16
31
16
20
25
43
60
1
1
0
0
255
226
15
122
14
96
16
29
25
43
60
1
1
0
0
255
226
16
1
15
90
15
125
25
43
60
1
1
0
0
255
243
143
127
64
127
127
255
226
16
20
17
49
15
107
25
43
60
1
1
0
0
255
226
16
17
16
86
16
12
25
43
60
1
1
0
0
255
226
15
125
14
115
16
32
25
43
60
1
1
0
0
255
226
15
127
15
39
16
5
25
43
60
1
1
0
0
255
243
143
127
64
127
127
255
226
16
21
17
20
15
107
25
43
60
1
1
0
0
255
226
16
23
17
5
16
3
25
43
60
1
1
0
0
255
226
15
127
15
16
16
34
25
43
60
1
1
0
0
255
226
15
121
14
122
16
15
25
43
60
1
1
0
0
255
243
143
127
64
127
127
255
226
16
12
16
101
15
109
25
43
60
1
1
0
0
255
226
16
21
17
40
15
120
25
43
60
1
1
0
0
255
226
16
2
15
65
16
29
25
43
60
1
1
0
0
255
226
15
122
14
99
16
18
25
43
60
1
1
0
0
255
226
16
13
16
51
15
111
25
43
60
1
1
0
0
255
243
143
127
64
127
127
255
226
16
24
17
55
15
111
25
43
60
1
1
0
0
255
226
16
7
15
119
16
22
25
43
60
1
1
0
0
255
226
15
121
14
90
16
25
25
43
60
1
1
0
0
255
226
16
6
15
122
15
120
25
43
60
1
1
0
0
255
243
143
127
64
127
127
255
226
16
23
17
55
15
108
25
43
60
1
1
0
0
255
226
16
13
16
47
16
16
25
43
60
1
1
0
0
255
226
15
122
14
97
16
28
25
43
60
1
1
0
0
255
226
15
126
15
62
15
127
25
43
60
1
1
0
0
255
243
143
127
64
127
127
255
226
16
18
17
32
15
104
25
43
60
1
1
0
0
255
226
16
17
16
102
16
5
25
43
60
1
1
0
0
255
226
15
125
14
122
16
31
25
43
60
1
1
0
0
255
226
15
123
15
13
16
7
25
43
60
1
1
0
0
255
243
143
127
64
127
127
255
226
16
16
16
126
15
105
25
43
60
1
1
0
0
255
226
16
19
17
16
15
126
25
43
60
1
1
0
0
255
226
15
126
15
30
16
32
25
43
60
1
1
0
0
255
226
15
120
14
106
16
17
25
43
60
1
1
0
0
255
243
143
127
64
127
127
255
226
16
7
16
77
15
111
25
43
60
1
1
0
0
255
226
16
16
17
41
15
118
25
43
60
1
1
0
0
255
226
15
124
15
77
16
29
25
43
60
1
1
0
0
255
226
15
112
14
82
16
24
25
43
60
1
1
0
0
255
226
15
127
16
13
15
116
25
43
60
1
1
0
0
255
243
143
127
64
127
127
255
226
16
15
17
48
15
112
25
43
60
1
1
0
0
255
226
15
127
16
8
16
23
25
43
60
1
1
0
0
255
226
15
108
14
79
16
27
25
43
60
1
1
0
0
255
226
15
118
15
77
15
120
25
43
60
1
1
0
0
255
243
143
127
64
127
127
255
226
16
5
17
18
15
101
25
43
60
1
1
0
0
255
226
15
123
16
28
16
5
25
43
60
1
1
0
0
255
226
15
104
14
57
16
24
25
43
60
1
1
0
0
255
226
15
108
14
121
15
126
25
43
60
1
1
0
0
255
243
143
127
64
127
127
255
226
16
1
16
107
15
101
25
43
60
1
1
0
0
255
226
16
5
16
87
16
0
25
43
60
1
1
0
0
255
226
15
114
14
111
16
35
25
43
60
1
1
0
0
255
226
15
111
14
105
16
19
25
43
60
1
1
0
0
255
243
143
127
64
127
127
255
226
16
2
16
90
15
116
25
43
60
1
1
0
0
255
226
16
9
17
18
16
3
25
43
60
1
1
0
0
255
226
15
119
15
42
16
40
25
43
60
1
1
0
0
255
226
15
112
14
89
16
27
25
43
60
1
1
0
0
255
243
143
127
64
127
127
255
226
16
3
16
52
15
118
25
43
60
1
1
0
0
255
226
16
21
17
55
15
121
25
43
60
1
1
0
0
255
226
16
8
15
115
16
32
25
43
60
1
1
0
0
255
226
15
125
14
97
16
33
25
43
60
1
1
0
0
255
243
143
127
64
127
127
255
226
16
11
16
10
15
125
25
43
60
1
1
0
0
255
226
16
29
17
66
15
114
25
43
60
1
1
0
0
255
226
16
19
16
55
16
24
25
43
60
1
1
0
0
255
226
16
2
14
112
16
38
25
43
60
1
1
0
0
255
243
143
127
64
127
127
255
226
16
10
15
89
16
8
25
43
60
1
1
0
0
255
226
16
29
17
54
15
116
25
43
60
1
1
0
0
255
226
16
23
16
107
16
16
25
43
60
1
1
0
0
255
226
16
2
15
0
16
38
25
43
60
1
1
0
0
255
226
16
3
15
33
16
10
25
43
60
1
1
0
0
255
243
143
127
64
127
127
255
226
16
23
17
16
15
109
25
43
60
1
1
0
0
255
226
16
27
17
25
16
2
25
43
60
1
1
0
0
255
226
16
8
15
40
16
37
25
43
60
1
1
0
0
255
226
16
1
14
125
16
20
25
43
60
1
1
0
0
255
243
143
127
64
127
127
255
226
16
19
16
100
15
111
25
43
60
1
1
0
0
255
226
16
33
17
61
15
111
25
43
60
1
1
0
0
255
226
16
17
15
105
16
6
25
43
60
1
1
0
0
255
226
16
9
15
3
15
108
25
43
60
1
1
0
0
255
243
143
127
64
127
127
255
226
16
28
16
61
15
58
25
43
60
1
1
0
0
255
226
16
38
17
50
15
49
25
43
60
1
1
0
0
255
226
16
1
15
72
15
94
25
43
60
1
1
0
0
255
226
15
64
13
72
16
3
25
43
60
1
1
0
0
255
243
143
127
64
127
127
255
226
15
21
13
118
16
22
25
43
60
1
1
0
0
255
226
14
118
14
85
16
90
25
43
60
1
1
0
0
255
226
14
86
13
26
17
73
25
43
60
1
1
0
0
255
226
14
102
11
47
18
9
25
43
60
1
1
0
0
255
243
143
127
64
127
127
255
226
15
51
12
67
17
120
25
43
60
1
1
0
0
255
226
16
9
15
52
17
86
25
43
59
1
1
0
0
255
226
16
40
16
18
17
99
25
43
59
1
1
0
0
255
226
16
29
15
0
17
115
25
43
59
1
1
0
0
255
243
143
127
64
127
127
255
226
16
28
15
71
17
75
25
43
59
1
1
0
0
255
226
16
43
17
108
17
25
25
43
59
1
1
0
0
255
226
16
49
18
53
17
11
25
43
59
1
1
0
0
255
226
16
27
16
73
17
7
25
43
59
1
1
0
0
255
226
16
13
15
105
16
83
25
43
59
1
1
0
0
255
243
143
127
64
127
127
255
226
16
27
17
33
16
12
25
43
59
1
1
0
0
255
226
16
36
17
118
15
114
25
43
59
1
1
0
0
255
226
16
19
16
23
16
3
25
43
59
1
1
0
0
255
226
16
6
15
1
15
114
25
43
59
1
1
0
0
255
243
143
127
64
127
127
255
226
16
18
16
44
15
67
25
43
59
1
1
0
0
255
226
16
34
17
88
15
52
25
43
59
1
1
0
0
255
226
16
24
16
62
15
86
25
43
59
1
1
0
0
255
226
16
6
14
122
15
93
25
43
59
1
1
0
0
255
243
143
127
64
127
127
255
226
16
12
15
105
15
62
25
43
59
1
1
0
0
255
226
16
31
17
66
15
42
25
43
59
1
1
0
0
255
226
16
27
16
113
15
73
25
43
59
1
1
0
0
255
226
16
5
15
5
15
94
25
43
59
1
1
0
0
255
243
143
127
64
127
127
255
226
16
7
15
45
15
70
25
43
59
1
1
0
0
255
226
16
23
17
25
15
43
25
43
59
1
1
0
0
255
226
16
23
17
20
15
67
25
43
59
1
1
0
0
255
226
16
3
15
32
15
99
25
43
59
1
1
0
0
255
243
143
127
64
127
127
255
226
16
1
15
0
15
84
25
43
59
1
1
0
0
255
226
16
18
16
104
15
53
25
43
59
1
1
0
0
255
226
16
27
17
48
15
65
25
43
59
1
1
0
0
255
226
16
8
15
75
15
105
25
43
59
1
1
0
0
255
243
143
127
64
127
127
255
226
15
124
14
100
15
98
25
43
59
1
1
0
0
255
226
16
9
16
42
15
63
25
43
59
1
1
0
0
255
226
16
23
17
59
15
63
25
43
59
1
1
0
0
255
226
16
8
16
1
15
104
25
43
59
1
1
0
0
255
226
15
121
14
90
15
109
25
43
59
1
1
0
0
255
243
143
127
64
127
127
255
226
16
4
15
112
15
76
25
43
59
1
1
0
0
255
226
16
21
17
49
15
64
25
43
59
1
1
0
0
255
226
16
12
16
53
15
102
25
43
59
1
1
0
0
255
226
15
119
14
93
15
118
25
43
59
1
1
0
0
255
243
143
127
64
127
127
255
226
15
122
15
48
15
89
25
43
59
1
1
0
0
255
226
16
13
17
20
15
66
25
43
59
1
1
0
0
255
226
16
13
16
101
15
98
25
43
59
1
1
0
0
255
226
15
119
14
115
15
125
25
43
59
1
1
0
0
255
243
143
127
64
127
127
255
226
15
118
14
123
15
104
25
43
59
1
1
0
0
255
226
16
9
16
104
15
75
25
43
59
1
1
0
0
255
226
16
13
17
7
15
95
25
43
59
1
1
0
0
255
226
15
120
15
23
16
2
25
43
59
1
1
0
0
255
243
143
127
64
127
127
255
226
15
110
14
84
15
116
25
43
59
1
1
0
0
255
226
15
126
16
50
15
82
25
43
59
1
1
0
0
255
226
16
8
17
22
15
88
25
43
59
1
1
0
0
255
226
15
120
15
64
16
1
25
43
59
1
1
0
0
255
243
143
127
64
127
127
255
226
15
106
14
61
15
127
25
43
59
1
1
0
0
255
226
15
117
15
113
15
92
25
43
59
1
1
0
0
255
226
16
3
17
24
15
86
25
43
59
1
1
0
0
255
226
15
119
15
117
15
127
25
43
59
1
1
0
0
255
243
143
127
64
127
127
255
226
15
98
14
54
16
8
25
43
59
1
1
0
0
255
226
15
105
15
45
15
105
25
43
59
1
1
0
0
255
226
15
123
17
0
15
89
25
43
59
1
1
0
0
255
226
15
112
16
38
15
123
25
43
59
1
1
0
0
255
226
15
90
14
64
16
16
25
43
59
1
1
0
0
255
243
143
127
64
127
127
255
226
15
96
14
112
15
119
25
43
59
1
1
0
0
255
226
15
115
16
90
15
92
25
43
59
1
1
0
0
255
226
15
114
16
74
15
117
25
43
59
1
1
0
0
255
226
15
91
14
85
16
20
25
43
59
1
1
0
0
255
243
143
127
64
127
127
255
226
15
86
14
63
16
3
25
43
59
1
1
0
0
255
226
15
101
16
43
15
100
25
43
59
1
1
0
0
255
226
15
111
16
106
15
113
25
43
59
1
1
0
0
255
226
15
91
15
3
16
25
25
43
59
1
1
0
0
255
243
143
127
64
127
127
255
226
15
82
14
39
16
18
25
43
59
1
1
0
0
255
226
15
100
15
120
15
113
25
43
59
1
1
0
0
255
226
15
112
16
122
15
115
25
43
59
1
1
0
0
255
226
15
95
15
56
16
28
25
43
59
1
1
0
0
255
243
143
127
64
127
127
255
226
15
80
14
27
16
31
25
43
59
1
1
0
0
255
226
15
93
15
60
15
127
25
43
59
1
1
0
0
255
226
15
112
16
127
15
117
25
43
59
1
1
0
0
255
226
15
105
15
124
16
27
25
43
59
1
1
0
0
255
243
143
127
64
127
127
255
226
15
86
14
46
16
41
25
43
59
1
1
0
0
255
226
15
93
15
14
16
11
25
43
59
1
1
0
0
255
226
15
117
16
116
15
119
25
43
59
1
1
0
0
255
226
15
117
16
63
16
20
25
43
59
1
1
0
0
255
226
15
102
14
89
16
42
25
43
59
1
1
0
0
255
243
143
127
64
127
127
255
226
15
106
14
115
16
17
25
43
59
1
1
0
0
255
226
16
1
16
102
15
115
25
43
59
1
1
0
0
255
226
16
7
17
2
16
5
25
43
59
1
1
0
0
255
226
15
121
15
23
16
37
25
43
59
1
1
0
0
255
243
143
127
64
127
127
255
226
15
118
14
104
16
20
25
43
59
1
1
0
0
255
226
16
11
16
79
15
112
25
43
59
1
1
0
0
255
226
16
23
17
48
15
117
25
43
59
1
1
0
0
255
226
16
10
15
93
16
26
25
43
59
1
1
0
0
255
243
143
127
64
127
127
255
226
16
1
14
105
16
19
25
43
59
1
1
0
0
255
226
16
19
16
41
15
110
25
43
59
1
1
0
0
255
226
16
37
17
77
15
105
25
43
59
1
1
0
0
255
226
16
24
16
38
16
16
25
43
59
1
1
0
0
255
243
143
127
64
127
127
255
226
16
8
14
118
16
22
25
43
59
1
1
0
0
255
226
16
18
15
124
15
116
25
43
59
1
1
0
0
255
226
16
40
17
78
15
98
25
43
59
1
1
0
0
255
226
16
35
16
104
16
2
25
43
59
1
1
0
0
255
243
143
127
64
127
127
255
226
16
16
15
9
16
19
25
43
59
1
1
0
0
255
226
16
21
15
76
15
120
25
43
59
1
1
0
0
255
226
16
40
17
54
15
95
25
43
59
1
1
0
0
255
226
16
40
17
26
15
122
25
43
59
1
1
0
0
255
243
143
127
64
127
127
255
226
16
18
15
40
16
21
25
43
59
1
1
0
0
255
226
16
16
15
30
16
1
25
43
59
1
1
0
0
255
226
16
34
17
12
15
96
25
43
59
1
1
0
0
255
226
16
42
17
62
15
111
25
43
59
1
1
0
0
255
243
143
127
64
127
127
255
226
16
20
15
82
16
20
25
43
59
1
1
0
0
255
226
16
9
14
122
16
9
25
43
59
1
1
0
0
255
226
16
24
16
79
15
103
25
43
59
1
1
0
0
255
226
16
37
17
79
15
104
25
43
59
1
1
0
0
255
226
16
24
16
7
16
15
25
43
59
1
1
0
0
255
243
143
127
64
127
127
255
226
16
11
14
114
16
15
25
43
59
1
1
0
0
255
226
16
21
16
21
15
111
25
43
59
1
1
0
0
255
226
16
36
17
71
15
101
25
43
59
1
1
0
0
255
226
16
26
16
55
16
10
25
43
59
1
1
0
0
255
243
143
127
64
127
127
255
226
16
9
14
113
16
21
25
43
59
1
1
0
0
255
226
16
15
15
89
15
120
25
43
59
1
1
0
0
255
226
16
34
17
55
15
100
25
43
59
1
1
0
0
255
226
16
28
16
112
16
3
25
43
59
1
1
0
0
255
243
143
127
64
127
127
255
226
16
4
15
5
16
26
25
43
59
1
1
0
0
255
226
16
4
15
35
16
1
25
43
59
1
1
0
0
255
226
16
22
17
15
15
100
25
43
59
1
1
0
0
255
226
16
26
17
23
15
121
25
43
59
1
1
0
0
255
243
143
127
64
127
127
255
226
16
7
15
37
16
26
25
43
59
1
1
0
0
255
226
16
0
14
124
16
10
25
43
59
1
1
0
0
255
226
16
17
16
98
15
106
25
43
59
1
1
0
0
255
226
16
26
17
53
15
115
25
43
59
1
1
0
0
255
243
143
127
64
127
127
255
226
16
7
15
84
16
26
25
43
59
1
1
0
0
255
226
15
125
14
103
16
19
25
43
59
1
1
0
0
255
226
16
12
16
46
15
112
25
43
59
1
1
0
0
255
226
16
27
17
69
15
109
25
43
59
1
1
0
0
255
243
143
127
64
127
127
255
226
16
13
16
18
16
20
25
43
59
1
1
0
0
255
226
15
127
14
101
16
25
25
43
59
1
1
0
0
255
226
16
9
15
115
15
119
25
43
59
1
1
0
0
255
226
16
27
17
63
15
103
25
43
59
1
1
0
0
255
226
16
20
16
80
16
9
25
43
59
1
1
0
0
255
243
143
127
64
127
127
255
226
16
1
14
121
16
27
25
43
59
1
1
0
0
255
226
16
5
15
66
16
0
25
43
59
1
1
0
0
255
226
16
23
17
42
15
104
25
43
59
1
1
0
0
255
226
16
19
17
2
16
3
25
43
59
1
1
0
0
255
243
143
127
64
127
127
255
226
16
1
15
18
16
30
25
43
59
1
1
0
0
255
226
16
1
15
21
16
10
25
43
59
1
1
0
0
255
226
16
22
17
7
15
107
25
43
59
1
1
0
0
255
226
16
28
17
47
15
123
25
43
59
1
1
0
0
255
243
143
127
64
127
127
255
226
16
7
15
65
16
31
25
43
59
1
1
0
0
255
226
15
127
14
122
16
19
25
43
59
1
1
0
0
255
226
16
16
16
83
15
112
25
43
59
1
1
0
0
255
226
16
27
17
69
15
116
25
43
59
1
1
0
0
255
243
143
127
64
127
127
255
226
16
12
15
119
16
27
25
43
59
1
1
0
0
255
226
15
126
14
107
16
25
25
43
59
1
1
0
0
255
226
16
10
16
26
15
118
25
43
59
1
1
0
0
255
226
16
27
17
74
15
109
25
43
59
1
1
0
0
255
243
143
127
64
127
127
255
226
16
16
16
50
16
18
25
43
59
1
1
0
0
255
226
15
125
14
112
16
28
25
43
59
1
1
0
0
255
226
16
3
15
95
15
125
25
43
59
1
1
0
0
255
226
16
25
17
61
15
105
25
43
59
1
1
0
0
255
243
143
127
64
127
127
255
226
16
21
16
109
16
8
25
43
59
1
1
0
0
255
226
15
127
15
3
16
30
25
43
59
1
1
0
0
255
226
15
127
15
45
16
5
25
43
59
1
1
0
0
255
226
16
20
17
25
15
104
25
43
59
1
1
0
0
255
226
16
22
17
26
15
127
25
43
59
1
1
0
0
255
243
143
127
64
127
127
255
226
16
2
15
38
16
31
25
43
59
1
1
0
0
255
226
15
127
15
6
16
15
25
43
59
1
1
0
0
255
226
16
16
16
111
15
110
25
43
59
1
1
0
0
255
226
16
23
17
54
15
120
25
43
59
1
1
0
0
255
243
143
127
64
127
127
255
226
16
2
15
81
16
29
25
43
59
1
1
0
0
255
226
15
121
14
108
16
21
25
43
59
1
1
0
0
255
226
16
8
16
58
15
114
25
43
59
1
1
0
0
255
226
16
22
17
71
15
112
25
43
59
1
1
0
0
255
243
143
127
64
127
127
255
226
16
11
16
9
16
24
25
43
59
1
1
0
0
255
226
15
125
14
99
16
29
25
43
59
1
1
0
0
255
226
16
8
15
124
15
123
25
43
59
1
1
0
0
255
226
16
26
17
65
15
107
25
43
59
1
1
0
0
255
243
143
127
64
127
127
255
226
16
16
16
69
16
15
25
43
59
1
1
0
0
255
226
15
124
14
116
16
29
25
43
59
1
1
0
0
255
226
15
126
15
71
16
0
25
43
59
1
1
0
0
255
226
16
19
17
44
15
105
25
43
59
1
1
0
0
255
243
143
127
64
127
127
255
226
16
19
16
123
16
3
25
43
59
1
1
0
0
255
226
15
126
15
11
16
30
25
43
59
1
1
0
0
255
226
15
125
15
22
16
8
25
43
59
1
1
0
0
255
226
16
18
17
4
15
105
25
43
59
1
1
0
0
255
243
143
127
64
127
127
255
226
16
22
17
32
15
123
25
43
59
1
1
0
0
255
226
16
0
15
49
16
30
25
43
59
1
1
0
0
255
226
15
120
14
112
16
18
25
43
59
1
1
0
0
255
226
16
12
16
81
15
112
25
43
59
1
1
0
0
255
226
16
22
17
58
15
117
25
43
59
1
1
0
0
255
243
143
127
64
127
127
255
226
16
3
15
100
16
27
25
43
59
1
1
0
0
255
226
15
120
14
96
16
23
25
43
59
1
1
0
0
255
226
16
7
16
26
15
116
25
43
59
1
1
0
0
255
226
16
20
17
65
15
111
25
43
59
1
1
0
0
255
243
143
127
64
127
127
255
226
16
9
16
31
16
21
25
43
59
1
1
0
0
255
226
15
123
14
100
16
29
25
43
59
1
1
0
0
255
226
16
2
15
95
15
125
25
43
59
1
1
0
0
255
226
16
20
17
53
15
107
25
43
59
1
1
0
0
255
243
143
127
64
127
127
255
226
16
15
16
89
16
11
25
43
59
1
1
0
0
255
226
15
122
14
119
16
31
25
43
59
1
1
0
0
255
226
15
124
15
45
16
3
25
43
59
1
1
0
0
255
226
16
17
17
26
15
103
25
43
59
1
1
0
0
255
243
143
127
64
127
127
255
226
16
16
17
7
16
0
25
43
59
1
1
0
0
255
226
15
125
15
19
16
31
25
43
59
1
1
0
0
255
226
15
120
14
124
16
13
25
43
59
1
1
0
0
255
226
16
13
16
107
15
109
25
43
59
1
1
0
0
255
243
143
127
64
127
127
255
226
16
19
17
41
15
120
25
43
59
1
1
0
0
255
226
16
0
15
68
16
29
25
43
59
1
1
0
0
255
226
15
121
14
101
16
20
25
43
59
1
1
0
0
255
226
16
8
16
50
15
112
25
43
59
1
1
0
0
255
243
143
127
64
127
127
255
226
16
21
17
57
15
113
25
43
59
1
1
0
0
255
226
16
5
15
123
16
26
25
43
59
1
1
0
0
255
226
15
120
14
95
16
27
25
43
59
1
1
0
0
255
226
16
4
15
122
15
121
25
43
59
1
1
0
0
255
226
16
22
17
56
15
108
25
43
59
1
1
0
0
255
243
143
127
64
127
127
255
226
16
11
16
56
16
16
25
43
59
1
1
0
0
255
226
15
122
14
106
16
30
25
43
59
1
1
0
0
255
226
15
126
15
69
16
0
25
43
59
1
1
0
0
255
226
16
15
17
38
15
106
25
43
59
1
1
0
0
255
243
143
127
64
127
127
255
226
16
10
16
107
16
7
25
43
59
1
1
0
0
255
226
15
120
14
126
16
32
25
43
59
1
1
0
0
255
226
15
120
15
16
16
9
25
43
59
1
1
0
0
255
226
16
9
16
126
15
106
25
43
59
1
1
0
0
255
243
143
127
64
127
127
255
226
16
10
17
16
15
125
25
43
59
1
1
0
0
255
226
15
116
15
33
16
30
25
43
59
1
1
0
0
255
226
15
108
14
107
16
15
25
43
59
1
1
0
0
255
226
15
122
16
73
15
105
25
43
59
1
1
0
0
255
243
143
127
64
127
127
255
226
16
3
17
29
15
110
25
43
59
1
1
0
0
255
226
15
111
15
51
16
19
25
43
59
1
1
0
0
255
226
15
100
14
49
16
13
25
43
59
1
1
0
0
255
226
15
117
15
112
15
106
25
43
59
1
1
0
0
255
243
143
127
64
127
127
255
226
16
3
17
20
15
102
25
43
59
1
1
0
0
255
226
15
121
15
113
16
14
25
43
59
1
1
0
0
255
226
15
105
14
67
16
24
25
43
59
1
1
0
0
255
226
15
117
15
75
15
126
25
43
59
1
1
0
0
255
243
143
127
64
127
127
255
226
16
9
17
34
15
112
25
43
59
1
1
0
0
255
226
16
5
16
64
16
21
25
43
59
1
1
0
0
255
226
15
114
14
101
16
41
25
43
59
1
1
0
0
255
226
15
117
15
36
16
13
25
43
59
1
1
0
0
255
226
16
9
17
17
15
115
25
43
59
1
1
0
0
255
243
143
127
64
127
127
255
226
16
11
17
1
16
9
25
43
59
1
1
0
0
255
226
15
125
15
21
16
37
25
43
59
1
1
0
0
255
226
15
127
15
14
16
18
25
43
59
1
1
0
0
255
226
16
20
16
126
15
112
25
43
59
1
1
0
0
255
243
143
127
64
127
127
255
226
16
26
17
51
15
127
25
43
59
1
1
0
0
255
226
16
6
15
74
16
35
25
43
59
1
1
0
0
255
226
15
125
14
117
16
26
25
43
59
1
1
0
0
255
226
16
14
16
73
15
119
25
43
59
1
1
0
0
255
243
143
127
64
127
127
255
226
16
27
17
68
15
120
25
43
59
1
1
0
0
255
226
16
12
15
125
16
32
25
43
59
1
1
0
0
255
226
15
126
14
105
16
32
25
43
59
1
1
0
0
255
226
16
11
16
15
15
124
25
43
59
1
1
0
0
255
243
143
127
64
127
127
255
226
16
28
17
71
15
113
25
43
59
1
1
0
0
255
226
16
18
16
59
16
23
25
43
59
1
1
0
0
255
226
15
127
14
113
16
33
25
43
59
1
1
0
0
255
226
16
6
15
86
16
0
25
43
59
1
1
0
0
255
243
143
127
64
127
127
255
226
16
25
17
50
15
106
25
43
59
1
1
0
0
255
226
16
23
16
112
16
2
25
43
59
1
1
0
0
255
226
16
8
15
20
16
15
25
43
59
1
1
0
0
255
226
16
14
15
65
15
102
25
43
59
1
1
0
0
255
243
143
127
64
127
127
255
226
16
40
17
45
15
55
25
43
59
1
1
0
0
255
226
16
47
17
25
15
67
25
43
59
1
1
0
0
255
226
16
10
14
125
15
99
25
43
59
1
1
0
0
255
226
15
87
14
10
15
103
25
43
59
1
1
0
0
255
226
15
48
15
22
15
112
25
43
59
1
1
0
0
255
243
143
127
64
127
127
255
226
15
5
15
3
16
62
25
43
59
1
1
0
0
255
226
14
73
12
76
17
54
25
43
59
1
1
0
0
255
226
14
74
11
47
17
102
25
43
59
1
1
0
0
255
226
15
29
13
25
17
92
25
43
59
1
1
0
0
255
243
143
127
64
127
127
255
226
15
120
15
48
17
87
25
43
59
1
1
0
0
255
226
16
24
15
10
17
115
25
43
59
1
1
0
0
255
226
16
27
14
72
17
103
25
43
59
1
1
0
0
255
226
16
42
16
32
17
46
25
43
59
1
1
0
0
255
243
143
127
64
127
127
255
226
16
59
18
41
17
9
25
43
59
1
1
0
0
255
226
16
49
17
104
17
23
25
43
59
1
1
0
0
255
226
16
24
16
26
17
14
25
43
59
1
1
0
0
255
226
16
25
16
83
16
79
25
43
59
1
1
0
0
255
243
143
127
64
127
127
255
226
16
39
18
24
16
18
25
43
59
1
1
0
0
255
226
16
35
17
84
16
16
25
43
59
1
1
0
0
255
226
16
12
15
78
16
19
25
43
59
1
1
0
0
255
226
16
10
15
62
15
108
25
43
59
1
1
0
0
255
243
143
127
64
127
127
255
226
16
27
17
35
15
64
25
43
59
1
1
0
0
255
226
16
31
17
71
15
71
25
43
59
1
1
0
0
255
226
16
11
15
85
15
101
25
43
59
1
1
0
0
255
226
16
2
15
7
15
86
25
43
59
1
1
0
0
255
243
143
127
64
127
127
255
226
16
21
16
94
15
50
25
43
59
1
1
0
0
255
226
16
33
17
76
15
52
25
43
59
1
1
0
0
255
226
16
16
15
123
15
91
25
43
59
1
1
0
0
255
226
16
1
14
109
15
92
25
43
59
1
1
0
0
255
226
16
12
16
23
15
58
25
43
59
1
1
0
0
255
243
143
127
64
127
127
255
226
16
29
17
71
15
50
25
43
59
1
1
0
0
255
226
16
17
16
48
15
87
25
43
59
1
1
0
0
255
226
15
126
14
111
15
100
25
43
59
1
1
0
0
255
226
16
5
15
95
15
70
25
43
59
1
1
0
0
255
243
143
127
64
127
127
255
226
16
23
17
52
15
52
25
43
59
1
1
0
0
255
226
16
17
16
95
15
85
25
43
59
1
1
0
0
255
226
15
123
14
118
15
108
25
43
59
1
1
0
0
255
226
15
124
15
30
15
84
25
43
59
1
1
0
0
255
243
143
127
64
127
127
255
226
16
19
17
12
15
57
25
43
59
1
1
0
0
255
226
16
21
17
9
15
82
25
43
59
1
1
0
0
255
226
16
0
15
25
15
114
25
43
59
1
1
0
0
255
226
15
121
14
119
15
100
25
43
59
1
1
0
0
255
243
143
127
64
127
127
255
226
16
10
16
92
15
66
25
43
59
1
1
0
0
255
226
16
19
17
35
15
78
25
43
59
1
1
0
0
255
226
16
0
15
62
15
117
25
43
59
1
1
0
0
255
226
15
117
14
87
15
111
25
43
59
1
1
0
0
255
243
143
127
64
127
127
255
226
16
4
16
33
15
75
25
43
59
1
1
0
0
255
226
16
15
17
48
15
76
25
43
59
1
1
0
0
255
226
16
2
15
119
15
117
25
43
59
1
1
0
0
255
226
15
116
14
80
15
124
25
43
59
1
1
0
0
255
243
143
127
64
127
127
255
226
15
125
15
97
15
91
25
43
59
1
1
0
0
255
226
16
13
17
36
15
77
25
43
59
1
1
0
0
255
226
16
4
16
41
15
114
25
43
59
1
1
0
0
255
226
15
110
14
82
16
3
25
43
59
1
1
0
0
255
226
15
113
15
33
15
103
25
43
59
1
1
0
0
255
243
143
127
64
127
127
255
226
16
4
17
6
15
81
25
43
59
1
1
0
0
255
226
16
3
16
91
15
110
25
43
59
1
1
0
0
255
226
15
111
14
106
16
9
25
43
59
1
1
0
0
255
226
15
109
14
109
15
116
25
43
59
1
1
0
0
255
243
143
127
64
127
127
255
226
16
0
16
91
15
85
25
43
59
1
1
0
0
255
226
16
3
16
122
15
104
25
43
59
1
1
0
0
255
226
15
111
15
9
16
13
25
43
59
1
1
0
0
255
226
15
103
14
72
16
1
25
43
59
1
1
0
0
255
243
143
127
64
127
127
255
226
15
118
16
35
15
95
25
43
59
1
1
0
0
255
226
15
125
17
9
15
100
25
43
59
1
1
0
0
255
226
15
107
15
53
16
12
25
43
59
1
1
0
0
255
226
15
92
14
45
16
11
25
43
59
1
1
0
0
255
243
143
127
64
127
127
255
226
15
102
15
94
15
105
25
43
59
1
1
0
0
255
226
15
116
17
6
15
100
25
43
59
1
1
0
0
255
226
15
104
15
101
16
13
25
43
59
1
1
0
0
255
226
15
87
14
38
16
22
25
43
59
1
1
0
0
255
243
143
127
64
127
127
255
226
15
95
15
31
15
121
25
43
59
1
1
0
0
255
226
15
111
16
116
15
103
25
43
59
1
1
0
0
255
226
15
102
16
24
16
9
25
43
59
1
1
0
0
255
226
15
80
14
54
16
31
25
43
59
1
1
0
0
255
243
143
127
64
127
127
255
226
15
85
14
105
16
6
25
43
59
1
1
0
0
255
226
15
105
16
86
15
108
25
43
59
1
1
0
0
255
226
15
102
16
72
16
5
25
43
59
1
1
0
0
255
226
15
81
14
85
16
39
25
43
59
1
1
0
0
255
226
15
81
14
62
16
21
25
43
59
1
1
0
0
255
243
143
127
64
127
127
255
226
15
101
16
41
15
119
25
43
59
1
1
0
0
255
226
15
109
16
111
16
2
25
43
59
1
1
0
0
255
226
15
93
15
12
16
42
25
43
59
1
1
0
0
255
226
15
84
14
46
16
36
25
43
59
1
1
0
0
255
243
143
127
64
127
127
255
226
15
102
15
126
16
0
25
43
59
1
1
0
0
255
226
15
119
17
9
16
1
25
43
59
1
1
0
0
255
226
15
106
15
77
16
40
25
43
59
1
1
0
0
255
226
15
94
14
50
16
42
25
43
59
1
1
0
0
255
243
143
127
64
127
127
255
226
15
113
15
83
16
6
25
43
59
1
1
0
0
255
226
16
5
17
21
15
121
25
43
59
1
1
0
0
255
226
15
126
16
25
16
26
25
43
59
1
1
0
0
255
226
15
114
14
83
16
38
25
43
59
1
1
0
0
255
243
143
127
64
127
127
255
226
15
125
15
53
16
7
25
43
59
1
1
0
0
255
226
16
21
17
29
15
110
25
43
59
1
1
0
0
255
226
16
24
16
107
16
8
25
43
59
1
1
0
0
255
226
16
7
15
4
16
32
25
43
59
1
1
0
0
255
243
143
127
64
127
127
255
226
16
7
15
25
16
8
25
43
59
1
1
0
0
255
226
16
30
17
9
15
103
25
43
59
1
1
0
0
255
226
16
37
17
34
15
119
25
43
59
1
1
0
0
255
226
16
19
15
54
16
24
25
43
59
1
1
0
0
255
243
143
127
64
127
127
255
226
16
15
15
2
16
8
25
43
59
1
1
0
0
255
226
16
37
16
105
15
98
25
43
59
1
1
0
0
255
226
16
48
17
75
15
103
25
43
59
1
1
0
0
255
226
16
28
15
116
16
13
25
43
59
1
1
0
0
255
226
16
15
14
120
16
10
25
43
59
1
1
0
0
255
243
143
127
64
127
127
255
226
16
30
16
51
15
101
25
43
59
1
1
0
0
255
226
16
45
17
86
15
94
25
43
59
1
1
0
0
255
226
16
32
16
49
16
3
25
43
59
1
1
0
0
255
226
16
17
14
123
16
12
25
43
59
1
1
0
0
255
243
143
127
64
127
127
255
226
16
26
15
122
15
108
25
43
59
1
1
0
0
255
226
16
43
17
75
15
90
25
43
59
1
1
0
0
255
226
16
38
16
102
15
123
25
43
59
1
1
0
0
255
226
16
17
15
4
16
14
25
43
59
1
1
0
0
255
243
143
127
64
127
127
255
226
16
18
15
61
15
117
25
43
59
1
1
0
0
255
226
16
36
17
42
15
90
25
43
59
1
1
0
0
255
226
16
38
17
20
15
115
25
43
59
1
1
0
0
255
226
16
16
15
34
16
17
25
43
59
1
1
0
0
255
243
143
127
64
127
127
255
226
16
10
15
17
15
126
25
43
59
1
1
0
0
255
226
16
28
16
125
15
94
25
43
59
1
1
0
0
255
226
16
37
17
51
15
106
25
43
59
1
1
0
0
255
226
16
17
15
70
16
16
25
43
59
1
1
0
0
255
243
143
127
64
127
127
255
226
16
8
14
111
16
7
25
43
59
1
1
0
0
255
226
16
24
16
65
15
102
25
43
59
1
1
0
0
255
226
16
35
17
63
15
103
25
43
59
1
1
0
0
255
226
16
17
15
123
16
14
25
43
59
1
1
0
0
255
243
143
127
64
127
127
255
226
16
2
14
98
16
15
25
43
59
1
1
0
0
255
226
16
13
16
5
15
109
25
43
59
1
1
0
0
255
226
16
28
17
61
15
98
25
43
59
1
1
0
0
255
226
16
20
16
50
16
8
25
43
59
1
1
0
0
255
243
143
127
64
127
127
255
226
16
2
14
102
16
21
25
43
59
1
1
0
0
255
226
16
9
15
72
15
121
25
43
59
1
1
0
0
255
226
16
28
17
40
15
101
25
43
59
1
1
0
0
255
226
16
23
16
108
16
2
25
43
59
1
1
0
0
255
226
16
1
14
127
16
26
25
43
59
1
1
0
0
255
243
143
127
64
127
127
255
226
16
0
15
26
16
3
25
43
59
1
1
0
0
255
226
16
21
17
10
15
102
25
43
59
1
1
0
0
255
226
16
25
17
24
15
123
25
43
59
1
1
0
0
255
226
16
6
15
40
16
28
25
43
59
1
1
0
0
255
243
143
127
64
127
127
255
226
15
127
14
123
16
13
25
43
59
1
1
0
0
255
226
16
16
16
95
15
106
25
43
59
1
1
0
0
255
226
16
26
17
52
15
113
25
43
59
1
1
0
0
255
226
16
8
15
88
16
24
25
43
59
1
1
0
0
255
243
143
127
64
127
127
255
226
15
125
14
101
16
20
25
43
59
1
1
0
0
255
226
16
13
16
40
15
113
25
43
59
1
1
0
0
255
226
16
29
17
71
15
109
25
43
59
1
1
0
0
255
226
16
16
16
25
16
21
25
43
59
1
1
0
0
255
243
143
127
64
127
127
255
226
16
0
14
103
16
26
25
43
59
1
1
0
0
255
226
16
10
15
112
15
121
25
43
59
1
1
0
0
255
226
16
29
17
63
15
105
25
43
59
1
1
0
0
255
226
16
20
16
81
16
12
25
43
59
1
1
0
0
255
243
143
127
64
127
127
255
226
16
1
14
120
16
30
25
43
59
1
1
0
0
255
226
16
5
15
60
16
2
25
43
59
1
1
0
0
255
226
16
27
17
39
15
105
25
43
59
1
1
0
0
255
226
16
26
17
9
16
3
25
43
59
1
1
0
0
255
226
16
4
15
21
16
31
25
43
59
1
1
0
0
255
243
143
127
64
127
127
255
226
16
0
15
13
16
9
25
43
59
1
1
0
0
255
226
16
19
16
124
15
106
25
43
59
1
1
0
0
255
226
16
26
17
49
15
119
25
43
59
1
1
0
0
255
226
16
8
15
66
16
28
25
43
59
1
1
0
0
255
243
143
127
64
127
127
255
226
16
0
14
114
16
17
25
43
59
1
1
0
0
255
226
16
18
16
75
15
110
25
43
59
1
1
0
0
255
226
16
30
17
67
15
114
25
43
59
1
1
0
0
255
226
16
12
15
119
16
25
25
43
59
1
1
0
0
255
243
143
127
64
127
127
255
226
15
127
14
103
16
24
25
43
59
1
1
0
0
255
226
16
12
16
18
15
118
25
43
59
1
1
0
0
255
226
16
28
17
70
15
108
25
43
59
1
1
0
0
255
226
16
17
16
53
16
18
25
43
59
1
1
0
0
255
243
143
127
64
127
127
255
226
16
0
14
109
16
29
25
43
59
1
1
0
0
255
226
16
6
15
84
15
127
25
43
59
1
1
0
0
255
226
16
22
17
45
15
104
25
43
59
1
1
0
0
255
226
16
20
16
103
16
8
25
43
59
1
1
0
0
255
243
143
127
64
127
127
255
226
16
1
15
2
16
31
25
43
59
1
1
0
0
255
226
16
2
15
36
16
6
25
43
59
1
1
0
0
255
226
16
20
17
18
15
107
25
43
59
1
1
0
0
255
226
16
22
17
20
15
127
25
43
59
1
1
0
0
255
243
143
127
64
127
127
255
226
16
4
15
34
16
31
25
43
59
1
1
0
0
255
226
16
1
14
125
16
13
25
43
59
1
1
0
0
255
226
16
17
16
100
15
108
25
43
59
1
1
0
0
255
226
16
25
17
51
15
118
25
43
59
1
1
0
0
255
226
16
6
15
80
16
28
25
43
59
1
1
0
0
255
243
143
127
64
127
127
255
226
15
123
14
98
16
22
25
43
59
1
1
0
0
255
226
16
12
16
40
15
114
25
43
59
1
1
0
0
255
226
16
25
17
59
15
111
25
43
59
1
1
0
0
255
226
16
11
16
9
16
22
25
43
59
1
1
0
0
255
243
143
127
64
127
127
255
226
15
124
14
95
16
26
25
43
59
1
1
0
0
255
226
16
5
15
110
15
120
25
43
59
1
1
0
0
255
226
16
25
17
56
15
104
25
43
59
1
1
0
0
255
226
16
18
16
68
16
12
25
43
59
1
1
0
0
255
243
143
127
64
127
127
255
226
15
126
14
108
16
29
25
43
59
1
1
0
0
255
226
16
3
15
57
16
1
25
43
59
1
1
0
0
255
226
16
24
17
35
15
107
25
43
59
1
1
0
0
255
226
16
22
16
121
16
5
25
43
59
1
1
0
0
255
243
143
127
64
127
127
255
226
15
127
15
6
16
31
25
43
59
1
1
0
0
255
226
15
125
15
9
16
9
25
43
59
1
1
0
0
255
226
16
16
16
121
15
105
25
43
59
1
1
0
0
255
226
16
22
17
32
15
121
25
43
59
1
1
0
0
255
243
143
127
64
127
127
255
226
16
3
15
50
16
29
25
43
59
1
1
0
0
255
226
15
126
14
112
16
19
25
43
59
1
1
0
0
255
226
16
16
16
76
15
112
25
43
59
1
1
0
0
255
226
16
26
17
55
15
116
25
43
59
1
1
0
0
255
243
143
127
64
127
127
255
226
16
7
15
101
16
25
25
43
59
1
1
0
0
255
226
15
121
14
92
16
23
25
43
59
1
1
0
0
255
226
16
6
16
12
15
116
25
43
59
1
1
0
0
255
226
16
24
17
58
15
108
25
43
59
1
1
0
0
255
226
16
14
16
32
16
18
25
43
59
1
1
0
0
255
243
143
127
64
127
127
255
226
15
125
14
96
16
29
25
43
59
1
1
0
0
255
226
16
6
15
83
15
125
25
43
59
1
1
0
0
255
226
16
22
17
43
15
105
25
43
59
1
1
0
0
255
226
16
17
16
90
16
9
25
43
59
1
1
0
0
255
243
143
127
64
127
127
255
226
15
124
14
115
16
30
25
43
59
1
1
0
0
255
226
15
125
15
31
16
4
25
43
59
1
1
0
0
255
226
16
18
17
13
15
104
25
43
59
1
1
0
0
255
226
16
20
17
7
15
126
25
43
59
1
1
0
0
255
243
143
127
64
127
127
255
226
15
127
15
19
16
29
25
43
59
1
1
0
0
255
226
15
121
14
116
16
11
25
43
59
1
1
0
0
255
226
16
14
16
95
15
105
25
43
59
1
1
0
0
255
226
16
22
17
40
15
117
25
43
59
1
1
0
0
255
243
143
127
64
127
127
255
226
16
4
15
68
16
26
25
43
59
1
1
0
0
255
226
15
120
14
95
16
19
25
43
59
1
1
0
0
255
226
16
8
16
44
15
112
25
43
59
1
1
0
0
255
226
16
21
17
56
15
109
25
43
59
1
1
0
0
255
243
143
127
64
127
127
255
226
16
6
15
124
16
22
25
43
59
1
1
0
0
255
226
15
122
14
90
16
26
25
43
59
1
1
0
0
255
226
16
4
15
112
15
121
25
43
59
1
1
0
0
255
226
16
19
17
52
15
108
25
43
59
1
1
0
0
255
243
143
127
64
127
127
255
226
16
10
16
54
16
17
25
43
59
1
1
0
0
255
226
15
120
14
97
16
32
25
43
59
1
1
0
0
255
226
15
123
15
52
16
1
25
43
59
1
1
0
0
255
226
16
12
17
23
15
104
25
43
59
1
1
0
0
255
226
16
8
16
102
16
4
25
43
59
1
1
0
0
255
243
143
127
64
127
127
255
226
15
116
14
121
16
31
25
43
59
1
1
0
0
255
226
15
112
15
0
16
6
25
43
59
1
1
0
0
255
226
16
4
16
100
15
103
25
43
59
1
1
0
0
255
226
16
5
16
120
15
118
25
43
59
1
1
0
0
255
243
143
127
64
127
127
255
226
15
110
14
126
16
23
25
43
59
1
1
0
0
255
226
15
101
14
55
16
9
25
43
59
1
1
0
0
255
226
15
120
16
26
15
103
25
43
59
1
1
0
0
255
226
16
5
17
10
15
110
25
43
59
1
1
0
0
255
243
143
127
64
127
127
255
226
15
121
15
60
16
24
25
43
59
1
1
0
0
255
226
15
109
14
63
16
27
25
43
59
1
1
0
0
255
226
15
123
15
124
15
122
25
43
59
1
1
0
0
255
226
16
8
17
39
15
118
25
43
59
1
1
0
0
255
243
143
127
64
127
127
255
226
15
127
16
8
16
29
25
43
59
1
1
0
0
255
226
15
112
14
81
16
37
25
43
59
1
1
0
0
255
226
15
122
15
78
16
3
25
43
59
1
1
0
0
255
226
16
16
17
44
15
111
25
43
59
1
1
0
0
255
243
143
127
64
127
127
255
226
16
14
16
84
16
15
25
43
59
1
1
0
0
255
226
15
124
14
115
16
36
25
43
59
1
1
0
0
255
226
16
0
15
45
16
9
25
43
59
1
1
0
0
255
226
16
23
17
29
15
110
25
43
59
1
1
0
0
255
243
143
127
64
127
127
255
226
16
24
17
16
16
5
25
43
59
1
1
0
0
255
226
16
3
15
31
16
35
25
43
59
1
1
0
0
255
226
15
127
15
10
16
18
25
43
59
1
1
0
0
255
226
16
18
16
121
15
114
25
43
59
1
1
0
0
255
226
16
27
17
53
15
127
25
43
59
1
1
0
0
255
243
143
127
64
127
127
255
226
16
8
15
74
16
34
25
43
59
1
1
0
0
255
226
15
126
14
108
16
25
25
43
59
1
1
0
0
255
226
16
14
16
57
15
116
25
43
59
1
1
0
0
255
226
16
28
17
65
15
115
25
43
59
1
1
0
0
255
243
143
127
64
127
127
255
226
16
13
16
1
16
26
25
43
59
1
1
0
0
255
226
15
127
14
99
16
29
25
43
59
1
1
0
0
255
226
16
10
15
127
15
121
25
43
59
1
1
0
0
255
226
16
28
17
63
15
105
25
43
59
1
1
0
0
255
243
143
127
64
127
127
255
226
16
22
16
66
16
3
25
43
59
1
1
0
0
255
226
16
7
15
0
16
1
25
43
59
1
1
0
0
255
226
16
18
15
102
15
81
25
43
59
1
1
0
0
255
226
16
41
17
55
15
46
25
43
59
1
1
0
0
255
243
143
127
64
127
127
255
226
16
30
16
84
15
70
25
43
59
1
1
0
0
255
226
15
106
14
42
15
107
25
43
59
1
1
0
0
255
226
15
53
13
103
15
123
25
43
59
1
1
0
0
255
226
15
20
14
116
16
23
25
43
59
1
1
0
0
255
243
143
127
64
127
127
255
226
14
104
14
32
16
127
25
43
59
1
1
0
0
255
226
14
71
11
115
17
101
25
43
59
1
1
0
0
255
226
14
115
11
61
17
125
25
43
59
1
1
0
0
255
226
15
84
14
7
17
94
25
43
59
1
1
0
0
255
243
143
127
64
127
127
255
226
16
25
15
117
17
91
25
43
58
1
1
0
0
255
226
16
32
15
20
17
118
25
43
58
1
1
0
0
255
226
16
25
14
111
17
99
25
43
58
1
1
0
0
255
226
16
41
16
114
17
42
25
43
58
1
1
0
0
255
226
16
55
18
74
17
16
25
43
58
1
1
0
0
255
243
143
127
64
127
127
255
226
16
40
17
56
17
24
25
43
58
1
1
0
0
255
226
16
19
15
120
16
122
25
43
58
1
1
0
0
255
226
16
23
16
92
16
50
25
43
58
1
1
0
0
255
226
16
36
18
11
15
126
25
43
58
1
1
0
0
255
243
143
127
64
127
127
255
226
16
29
17
17
16
4
25
43
58
1
1
0
0
255
226
16
7
15
33
16
3
25
43
58
1
1
0
0
255
226
16
9
15
83
15
89
25
43
58
1
1
0
0
255
226
16
29
17
59
15
53
25
43
58
1
1
0
0
255
243
143
127
64
127
127
255
226
16
28
17
34
15
71
25
43
58
1
1
0
0
255
226
16
9
15
45
15
97
25
43
58
1
1
0
0
255
226
16
5
15
29
15
76
25
43
58
1
1
0
0
255
226
16
27
17
8
15
42
25
43
58
1
1
0
0
255
243
143
127
64
127
127
255
226
16
33
17
62
15
55
25
43
58
1
1
0
0
255
226
16
12
15
83
15
92
25
43
58
1
1
0
0
255
226
16
3
14
125
15
82
25
43
58
1
1
0
0
255
226
16
19
16
80
15
49
25
43
58
1
1
0
0
255
243
143
127
64
127
127
255
226
16
30
17
73
15
50
25
43
58
1
1
0
0
255
226
16
15
16
0
15
90
25
43
58
1
1
0
0
255
226
16
1
14
103
15
93
25
43
58
1
1
0
0
255
226
16
14
16
13
15
62
25
43
58
1
1
0
0
255
243
143
127
64
127
127
255
226
16
32
17
70
15
54
25
43
58
1
1
0
0
255
226
16
17
16
53
15
91
25
43
58
1
1
0
0
255
226
15
124
14
104
15
104
25
43
58
1
1
0
0
255
226
16
0
15
72
15
74
25
43
58
1
1
0
0
255
226
16
20
17
39
15
54
25
43
58
1
1
0
0
255
243
143
127
64
127
127
255
226
16
15
16
100
15
85
25
43
58
1
1
0
0
255
226
15
123
14
123
15
111
25
43
58
1
1
0
0
255
226
15
122
15
23
15
89
25
43
58
1
1
0
0
255
226
16
14
17
0
15
60
25
43
58
1
1
0
0
255
243
143
127
64
127
127
255
226
16
17
17
16
15
80
25
43
58
1
1
0
0
255
226
15
125
15
29
15
117
25
43
58
1
1
0
0
255
226
15
119
14
107
15
103
25
43
58
1
1
0
0
255
226
16
7
16
78
15
71
25
43
58
1
1
0
0
255
243
143
127
64
127
127
255
226
16
18
17
36
15
80
25
43
58
1
1
0
0
255
226
16
1
15
70
15
120
25
43
58
1
1
0
0
255
226
15
118
14
81
15
117
25
43
58
1
1
0
0
255
226
16
3
16
17
15
82
25
43
58
1
1
0
0
255
243
143
127
64
127
127
255
226
16
17
17
45
15
78
25
43
58
1
1
0
0
255
226
16
4
16
1
15
119
25
43
58
1
1
0
0
255
226
15
111
14
77
15
126
25
43
58
1
1
0
0
255
226
15
119
15
81
15
93
25
43
58
1
1
0
0
255
243
143
127
64
127
127
255
226
16
9
17
28
15
77
25
43
58
1
1
0
0
255
226
16
2
16
50
15
114
25
43
58
1
1
0
0
255
226
15
110
14
82
16
7
25
43
58
1
1
0
0
255
226
15
111
15
17
15
107
25
43
58
1
1
0
0
255
243
143
127
64
127
127
255
226
16
1
16
122
15
80
25
43
58
1
1
0
0
255
226
16
0
16
88
15
107
25
43
58
1
1
0
0
255
226
15
107
14
102
16
9
25
43
58
1
1
0
0
255
226
15
103
14
96
15
119
25
43
58
1
1
0
0
255
226
15
120
16
76
15
87
25
43
58
1
1
0
0
255
243
143
127
64
127
127
255
226
15
123
16
120
15
103
25
43
58
1
1
0
0
255
226
15
102
15
6
16
12
25
43
58
1
1
0
0
255
226
15
94
14
54
16
4
25
43
58
1
1
0
0
255
226
15
110
16
12
15
99
25
43
58
1
1
0
0
255
243
143
127
64
127
127
255
226
15
120
17
4
15
103
25
43
58
1
1
0
0
255
226
15
104
15
57
16
17
25
43
58
1
1
0
0
255
226
15
89
14
35
16
18
25
43
58
1
1
0
0
255
226
15
100
15
74
15
112
25
43
58
1
1
0
0
255
243
143
127
64
127
127
255
226
15
114
16
126
15
103
25
43
58
1
1
0
0
255
226
15
104
15
107
16
13
25
43
58
1
1
0
0
255
226
15
83
14
36
16
26
25
43
58
1
1
0
0
255
226
15
90
15
14
15
127
25
43
58
1
1
0
0
255
243
143
127
64
127
127
255
226
15
109
16
109
15
107
25
43
58
1
1
0
0
255
226
15
103
16
34
16
10
25
43
58
1
1
0
0
255
226
15
82
14
59
16
36
25
43
58
1
1
0
0
255
226
15
85
14
93
16
13
25
43
58
1
1
0
0
255
243
143
127
64
127
127
255
226
15
107
16
76
15
112
25
43
58
1
1
0
0
255
226
15
110
16
82
16
7
25
43
58
1
1
0
0
255
226
15
91
14
99
16
41
25
43
58
1
1
0
0
255
226
15
87
14
63
16
26
25
43
58
1
1
0
0
255
243
143
127
64
127
127
255
226
15
107
16
43
15
121
25
43
58
1
1
0
0
255
226
15
119
16
126
16
3
25
43
58
1
1
0
0
255
226
15
104
15
30
16
41
25
43
58
1
1
0
0
255
226
15
99
14
57
16
33
25
43
58
1
1
0
0
255
226
15
118
16
6
15
125
25
43
58
1
1
0
0
255
243
143
127
64
127
127
255
226
16
7
17
33
15
121
25
43
58
1
1
0
0
255
226
16
0
15
116
16
30
25
43
58
1
1
0
0
255
226
15
117
14
80
16
33
25
43
58
1
1
0
0
255
226
16
3
15
99
15
126
25
43
58
1
1
0
0
255
243
143
127
64
127
127
255
226
16
25
17
51
15
109
25
43
58
1
1
0
0
255
226
16
19
16
73
16
13
25
43
58
1
1
0
0
255
226
16
3
14
116
16
28
25
43
58
1
1
0
0
255
226
16
12
15
68
15
127
25
43
58
1
1
0
0
255
243
143
127
64
127
127
255
226
16
34
17
49
15
100
25
43
58
1
1
0
0
255
226
16
34
17
12
15
125
25
43
58
1
1
0
0
255
226
16
14
15
32
16
22
25
43
58
1
1
0
0
255
226
16
14
15
32
15
127
25
43
58
1
1
0
0
255
243
143
127
64
127
127
255
226
16
34
17
16
15
95
25
43
58
1
1
0
0
255
226
16
40
17
61
15
109
25
43
58
1
1
0
0
255
226
16
20
15
79
16
17
25
43
58
1
1
0
0
255
226
16
12
15
8
16
5
25
43
58
1
1
0
0
255
243
143
127
64
127
127
255
226
16
33
16
101
15
97
25
43
58
1
1
0
0
255
226
16
45
17
87
15
100
25
43
58
1
1
0
0
255
226
16
28
16
5
16
11
25
43
58
1
1
0
0
255
226
16
15
14
119
16
11
25
43
58
1
1
0
0
255
243
143
127
64
127
127
255
226
16
28
16
35
15
105
25
43
58
1
1
0
0
255
226
16
43
17
85
15
97
25
43
58
1
1
0
0
255
226
16
32
16
62
16
6
25
43
58
1
1
0
0
255
226
16
14
14
122
16
17
25
43
58
1
1
0
0
255
243
143
127
64
127
127
255
226
16
21
15
108
15
113
25
43
58
1
1
0
0
255
226
16
40
17
68
15
93
25
43
58
1
1
0
0
255
226
16
34
16
113
15
125
25
43
58
1
1
0
0
255
226
16
13
15
9
16
19
25
43
58
1
1
0
0
255
226
16
13
15
49
15
122
25
43
58
1
1
0
0
255
243
143
127
64
127
127
255
226
16
31
17
29
15
94
25
43
58
1
1
0
0
255
226
16
32
17
30
15
116
25
43
58
1
1
0
0
255
226
16
9
15
39
16
19
25
43
58
1
1
0
0
255
226
16
5
15
4
16
2
25
43
58
1
1
0
0
255
243
143
127
64
127
127
255
226
16
25
16
110
15
98
25
43
58
1
1
0
0
255
226
16
33
17
56
15
109
25
43
58
1
1
0
0
255
226
16
14
15
83
16
21
25
43
58
1
1
0
0
255
226
16
4
14
106
16
14
25
43
58
1
1
0
0
255
243
143
127
64
127
127
255
226
16
17
16
51
15
108
25
43
58
1
1
0
0
255
226
16
32
17
68
15
106
25
43
58
1
1
0
0
255
226
16
19
16
10
16
18
25
43
58
1
1
0
0
255
226
16
1
14
98
16
23
25
43
58
1
1
0
0
255
243
143
127
64
127
127
255
226
16
12
15
118
15
118
25
43
58
1
1
0
0
255
226
16
29
17
60
15
105
25
43
58
1
1
0
0
255
226
16
23
16
67
16
11
25
43
58
1
1
0
0
255
226
16
2
14
110
16
27
25
43
58
1
1
0
0
255
243
143
127
64
127
127
255
226
16
6
15
63
15
127
25
43
58
1
1
0
0
255
226
16
26
17
39
15
103
25
43
58
1
1
0
0
255
226
16
25
16
123
16
3
25
43
58
1
1
0
0
255
226
16
3
15
10
16
29
25
43
58
1
1
0
0
255
243
143
127
64
127
127
255
226
16
0
15
18
16
6
25
43
58
1
1
0
0
255
226
16
20
17
4
15
104
25
43
58
1
1
0
0
255
226
16
24
17
36
15
123
25
43
58
1
1
0
0
255
226
16
4
15
51
16
31
25
43
58
1
1
0
0
255
226
15
127
14
118
16
17
25
43
58
1
1
0
0
255
243
143
127
64
127
127
255
226
16
19
16
87
15
111
25
43
58
1
1
0
0
255
226
16
29
17
68
15
115
25
43
58
1
1
0
0
255
226
16
9
15
111
16
26
25
43
58
1
1
0
0
255
226
15
123
14
107
16
24
25
43
58
1
1
0
0
255
243
143
127
64
127
127
255
226
16
11
16
32
15
116
25
43
58
1
1
0
0
255
226
16
25
17
73
15
109
25
43
58
1
1
0
0
255
226
16
16
16
45
16
19
25
43
58
1
1
0
0
255
226
15
127
14
109
16
27
25
43
58
1
1
0
0
255
243
143
127
64
127
127
255
226
16
7
15
100
15
123
25
43
58
1
1
0
0
255
226
16
26
17
61
15
104
25
43
58
1
1
0
0
255
226
16
19
16
100
16
9
25
43
58
1
1
0
0
255
226
16
0
14
126
16
31
25
43
58
1
1
0
0
255
243
143
127
64
127
127
255
226
16
1
15
46
16
5
25
43
58
1
1
0
0
255
226
16
24
17
30
15
105
25
43
58
1
1
0
0
255
226
16
29
17
22
16
0
25
43
58
1
1
0
0
255
226
16
6
15
35
16
31
25
43
58
1
1
0
0
255
243
143
127
64
127
127
255
226
16
1
15
9
16
15
25
43
58
1
1
0
0
255
226
16
20
16
118
15
110
25
43
58
1
1
0
0
255
226
16
25
17
57
15
122
25
43
58
1
1
0
0
255
226
16
7
15
81
16
30
25
43
58
1
1
0
0
255
243
143
127
64
127
127
255
226
16
0
14
112
16
20
25
43
58
1
1
0
0
255
226
16
16
16
62
15
113
25
43
58
1
1
0
0
255
226
16
28
17
73
15
113
25
43
58
1
1
0
0
255
226
16
13
16
11
16
25
25
43
58
1
1
0
0
255
226
15
127
14
106
16
28
25
43
58
1
1
0
0
255
243
143
127
64
127
127
255
226
16
10
16
3
15
121
25
43
58
1
1
0
0
255
226
16
29
17
69
15
108
25
43
58
1
1
0
0
255
226
16
18
16
68
16
15
25
43
58
1
1
0
0
255
226
16
0
14
113
16
30
25
43
58
1
1
0
0
255
243
143
127
64
127
127
255
226
16
5
15
71
16
0
25
43
58
1
1
0
0
255
226
16
23
17
43
15
105
25
43
58
1
1
0
0
255
226
16
19
16
115
16
5
25
43
58
1
1
0
0
255
226
15
127
15
6
16
32
25
43
58
1
1
0
0
255
243
143
127
64
127
127
255
226
16
0
15
24
16
9
25
43
58
1
1
0
0
255
226
16
20
17
7
15
106
25
43
58
1
1
0
0
255
226
16
23
17
32
15
125
25
43
58
1
1
0
0
255
226
16
4
15
47
16
31
25
43
58
1
1
0
0
255
243
143
127
64
127
127
255
226
15
126
14
119
16
18
25
43
58
1
1
0
0
255
226
16
16
16
89
15
112
25
43
58
1
1
0
0
255
226
16
25
17
62
15
118
25
43
58
1
1
0
0
255
226
16
8
15
101
16
28
25
43
58
1
1
0
0
255
243
143
127
64
127
127
255
226
15
123
14
100
16
24
25
43
58
1
1
0
0
255
226
16
9
16
29
15
116
25
43
58
1
1
0
0
255
226
16
23
17
64
15
109
25
43
58
1
1
0
0
255
226
16
12
16
31
16
19
25
43
58
1
1
0
0
255
243
143
127
64
127
127
255
226
15
125
14
103
16
26
25
43
58
1
1
0
0
255
226
16
5
15
101
15
121
25
43
58
1
1
0
0
255
226
16
26
17
60
15
103
25
43
58
1
1
0
0
255
226
16
19
16
92
16
10
25
43
58
1
1
0
0
255
226
15
124
14
118
16
30
25
43
58
1
1
0
0
255
243
143
127
64
127
127
255
226
15
124
15
44
16
2
25
43
58
1
1
0
0
255
226
16
15
17
26
15
104
25
43
58
1
1
0
0
255
226
16
16
17
12
15
127
25
43
58
1
1
0
0
255
226
15
124
15
22
16
29
25
43
58
1
1
0
0
255
243
143
127
64
127
127
255
226
15
120
15
4
16
9
25
43
58
1
1
0
0
255
226
16
14
16
113
15
105
25
43
58
1
1
0
0
255
226
16
21
17
43
15
117
25
43
58
1
1
0
0
255
226
16
2
15
66
16
27
25
43
58
1
1
0
0
255
243
143
127
64
127
127
255
226
15
121
14
106
16
18
25
43
58
1
1
0
0
255
226
16
10
16
61
15
109
25
43
58
1
1
0
0
255
226
16
23
17
65
15
111
25
43
58
1
1
0
0
255
226
16
8
15
126
16
22
25
43
58
1
1
0
0
255
243
143
127
64
127
127
255
226
15
119
14
96
16
22
25
43
58
1
1
0
0
255
226
16
2
15
127
15
116
25
43
58
1
1
0
0
255
226
16
19
17
59
15
105
25
43
58
1
1
0
0
255
226
16
10
16
54
16
14
25
43
58
1
1
0
0
255
243
143
127
64
127
127
255
226
15
121
14
106
16
28
25
43
58
1
1
0
0
255
226
16
0
15
77
15
126
25
43
58
1
1
0
0
255
226
16
20
17
43
15
103
25
43
58
1
1
0
0
255
226
16
16
16
107
16
5
25
43
58
1
1
0
0
255
243
143
127
64
127
127
255
226
15
122
14
125
16
30
25
43
58
1
1
0
0
255
226
15
120
15
19
16
6
25
43
58
1
1
0
0
255
226
16
13
17
3
15
105
25
43
58
1
1
0
0
255
226
16
19
17
23
15
123
25
43
58
1
1
0
0
255
226
15
126
15
39
16
28
25
43
58
1
1
0
0
255
243
143
127
64
127
127
255
226
15
118
14
114
16
13
25
43
58
1
1
0
0
255
226
16
12
16
84
15
106
25
43
58
1
1
0
0
255
226
16
22
17
52
15
114
25
43
58
1
1
0
0
255
226
16
2
15
88
16
26
25
43
58
1
1
0
0
255
243
143
127
64
127
127
255
226
15
117
14
93
16
21
25
43
58
1
1
0
0
255
226
16
5
16
29
15
113
25
43
58
1
1
0
0
255
226
16
21
17
63
15
109
25
43
58
1
1
0
0
255
226
16
10
16
22
16
20
25
43
58
1
1
0
0
255
243
143
127
64
127
127
255
226
15
119
14
96
16
28
25
43
58
1
1
0
0
255
226
16
0
15
97
15
124
25
43
58
1
1
0
0
255
226
16
15
17
48
15
108
25
43
58
1
1
0
0
255
226
16
7
16
74
16
13
25
43
58
1
1
0
0
255
243
143
127
64
127
127
255
226
15
115
14
104
16
31
25
43
58
1
1
0
0
255
226
15
119
15
41
16
3
25
43
58
1
1
0
0
255
226
16
11
17
22
15
106
25
43
58
1
1
0
0
255
226
16
8
16
123
16
3
25
43
58
1
1
0
0
255
243
143
127
64
127
127
255
226
15
114
15
5
16
31
25
43
58
1
1
0
0
255
226
15
108
14
113
16
9
25
43
58
1
1
0
0
255
226
15
127
16
86
15
101
25
43
58
1
1
0
0
255
226
16
3
17
1
15
111
25
43
58
1
1
0
0
255
226
15
110
15
15
16
20
25
43
58
1
1
0
0
255
243
143
127
64
127
127
255
226
15
102
14
60
16
11
25
43
58
1
1
0
0
255
226
15
121
16
26
15
106
25
43
58
1
1
0
0
255
226
16
6
17
30
15
110
25
43
58
1
1
0
0
255
226
15
118
15
91
16
26
25
43
58
1
1
0
0
255
243
143
127
64
127
127
255
226
15
105
14
72
16
31
25
43
58
1
1
0
0
255
226
15
119
15
111
15
127
25
43
58
1
1
0
0
255
226
16
10
17
44
15
116
25
43
58
1
1
0
0
255
226
16
1
16
38
16
23
25
43
58
1
1
0
0
255
243
143
127
64
127
127
255
226
15
111
14
94
16
35
25
43
58
1
1
0
0
255
226
15
120
15
73
16
4
25
43
58
1
1
0
0
255
226
16
17
17
47
15
110
25
43
58
1
1
0
0
255
226
16
17
16
110
16
10
25
43
58
1
1
0
0
255
243
143
127
64
127
127
255
226
15
127
15
6
16
35
25
43
58
1
1
0
0
255
226
16
0
15
37
16
10
25
43
58
1
1
0
0
255
226
16
22
17
22
15
111
25
43
58
1
1
0
0
255
226
16
27
17
35
16
3
25
43
58
1
1
0
0
255
243
143
127
64
127
127
255
226
16
7
15
49
16
36
25
43
58
1
1
0
0
255
226
16
0
15
2
16
20
25
43
58
1
1
0
0
255
226
16
19
16
107
15
113
25
43
58
1
1
0
0
255
226
16
28
17
67
15
121
25
43
58
1
1
0
0
255
243
143
127
64
127
127
255
226
16
10
15
101
16
31
25
43
58
1
1
0
0
255
226
15
127
14
113
16
25
25
43
58
1
1
0
0
255
226
16
13
16
49
15
116
25
43
58
1
1
0
0
255
226
16
27
17
77
15
113
25
43
58
1
1
0
0
255
243
143
127
64
127
127
255
226
16
13
16
29
16
23
25
43
58
1
1
0
0
255
226
15
127
14
108
16
26
25
43
58
1
1
0
0
255
226
16
9
15
118
15
116
25
43
58
1
1
0
0
255
226
16
32
17
73
15
93
25
43
58
1
1
0
0
255
226
16
29
16
108
15
111
25
43
58
1
1
0
0
255
243
143
127
64
127
127
255
226
16
10
15
26
15
111
25
43
58
1
1
0
0
255
226
16
19
15
82
15
69
25
43
58
1
1
0
0
255
226
16
34
17
24
15
39
25
43
58
1
1
0
0
255
226
16
9
16
66
15
72
25
43
58
1
1
0
0
255
243
143
127
64
127
127
255
226
15
67
13
124
16
5
25
43
58
1
1
0
0
255
226
15
12
13
28
16
37
25
43
58
1
1
0
0
255
226
14
111
14
31
16
89
25
43
58
1
1
0
0
255
226
14
91
14
1
17
51
25
43
58
1
1
0
0
255
243
143
127
64
127
127
255
226
14
107
12
8
18
6
25
43
58
1
1
0
0
255
226
15
46
12
11
18
7
25
43
58
1
1
0
0
255
226
16
3
14
106
17
93
25
43
58
1
1
0
0
255
226
16
48
16
100
17
82
25
43
57
1
1
0
0
255
243
143
127
64
127
127
255
226
16
42
15
117
17
109
25
43
57
1
1
0
0
255
226
16
26
15
44
17
88
25
43
57
1
1
0
0
255
226
16
34
17
17
17
36
25
43
57
1
1
0
0
255
226
16
52
18
96
16
126
25
43
57
1
1
0
0
255
243
143
127
64
127
127
255
226
16
40
17
80
16
125
25
43
57
1
1
0
0
255
226
16
18
15
113
16
93
25
43
57
1
1
0
0
255
226
16
18
16
52
16
25
25
43
57
1
1
0
0
255
226
16
33
17
116
15
103
25
43
57
1
1
0
0
255
243
143
127
64
127
127
255
226
16
29
17
24
15
112
25
43
57
1
1
0
0
255
226
16
9
15
38
15
119
25
43
57
1
1
0
0
255
226
16
10
15
67
15
83
25
43
57
1
1
0
0
255
226
16
28
17
47
15
46
25
43
57
1
1
0
0
255
226
16
30
17
49
15
64
25
43
57
1
1
0
0
255
243
143
127
64
127
127
255
226
16
10
15
60
15
93
25
43
57
1
1
0
0
255
226
16
7
15
21
15
76
25
43
57
1
1
0
0
255
226
16
27
16
122
15
43
25
43
57
1
1
0
0
255
226
16
34
17
74
15
53
25
43
57
1
1
0
0
255
243
143
127
64
127
127
255
226
16
12
15
103
15
93
25
43
57
1
1
0
0
255
226
16
1
14
119
15
87
25
43
57
1
1
0
0
255
226
16
15
16
57
15
53
25
43
57
1
1
0
0
255
226
16
28
17
76
15
52
25
43
57
1
1
0
0
255
243
143
127
64
127
127
255
226
16
16
16
24
15
93
25
43
57
1
1
0
0
255
226
16
2
14
109
15
98
25
43
57
1
1
0
0
255
226
16
9
15
119
15
65
25
43
57
1
1
0
0
255
226
16
25
17
62
15
52
25
43
57
1
1
0
0
255
243
143
127
64
127
127
255
226
16
15
16
74
15
89
25
43
57
1
1
0
0
255
226
15
122
14
112
15
108
25
43
57
1
1
0
0
255
226
15
126
15
59
15
81
25
43
57
1
1
0
0
255
226
16
18
17
36
15
57
25
43
57
1
1
0
0
255
243
143
127
64
127
127
255
226
16
19
16
122
15
84
25
43
57
1
1
0
0
255
226
15
126
15
10
15
112
25
43
57
1
1
0
0
255
226
15
123
15
9
15
92
25
43
57
1
1
0
0
255
226
16
12
16
118
15
62
25
43
57
1
1
0
0
255
243
143
127
64
127
127
255
226
16
18
17
31
15
79
25
43
57
1
1
0
0
255
226
15
126
15
48
15
118
25
43
57
1
1
0
0
255
226
15
120
14
103
15
108
25
43
57
1
1
0
0
255
226
16
7
16
63
15
74
25
43
57
1
1
0
0
255
226
16
17
17
46
15
80
25
43
57
1
1
0
0
255
243
143
127
64
127
127
255
226
15
127
15
94
15
120
25
43
57
1
1
0
0
255
226
15
111
14
82
15
120
25
43
57
1
1
0
0
255
226
15
125
15
125
15
86
25
43
57
1
1
0
0
255
226
16
12
17
46
15
76
25
43
57
1
1
0
0
255
243
143
127
64
127
127
255
226
16
3
16
25
15
115
25
43
57
1
1
0
0
255
226
15
112
14
85
15
126
25
43
57
1
1
0
0
255
226
15
114
15
64
15
95
25
43
57
1
1
0
0
255
226
16
3
17
24
15
76
25
43
57
1
1
0
0
255
243
143
127
64
127
127
255
226
16
0
16
69
15
109
25
43
57
1
1
0
0
255
226
15
106
14
92
16
5
25
43
57
1
1
0
0
255
226
15
108
15
3
15
111
25
43
57
1
1
0
0
255
226
15
126
16
112
15
84
25
43
57
1
1
0
0
255
243
143
127
64
127
127
255
226
15
127
16
108
15
107
25
43
57
1
1
0
0
255
226
15
102
14
120
16
10
25
43
57
1
1
0
0
255
226
15
96
14
87
15
122
25
43
57
1
1
0
0
255
226
15
114
16
63
15
89
25
43
57
1
1
0
0
255
243
143
127
64
127
127
255
226
15
123
17
7
15
100
25
43
57
1
1
0
0
255
226
15
102
15
33
16
13
25
43
57
1
1
0
0
255
226
15
91
14
56
16
7
25
43
57
1
1
0
0
255
226
15
107
15
127
15
100
25
43
57
1
1
0
0
255
243
143
127
64
127
127
255
226
15
117
17
11
15
98
25
43
57
1
1
0
0
255
226
15
101
15
82
16
12
25
43
57
1
1
0
0
255
226
15
84
14
42
16
18
25
43
57
1
1
0
0
255
226
15
93
15
61
15
115
25
43
57
1
1
0
0
255
226
15
111
17
2
15
101
25
43
57
1
1
0
0
255
243
143
127
64
127
127
255
226
15
100
16
7
16
9
25
43
57
1
1
0
0
255
226
15
80
14
46
16
27
25
43
57
1
1
0
0
255
226
15
84
14
125
16
0
25
43
57
1
1
0
0
255
226
15
107
16
100
15
106
25
43
57
1
1
0
0
255
243
143
127
64
127
127
255
226
15
105
16
63
16
7
25
43
57
1
1
0
0
255
226
15
83
14
83
16
35
25
43
57
1
1
0
0
255
226
15
83
14
89
16
17
25
43
57
1
1
0
0
255
226
15
104
16
70
15
116
25
43
57
1
1
0
0
255
243
143
127
64
127
127
255
226
15
111
16
105
16
5
25
43
57
1
1
0
0
255
226
15
93
14
124
16
41
25
43
57
1
1
0
0
255
226
15
87
14
57
16
30
25
43
57
1
1
0
0
255
226
15
105
16
27
15
122
25
43
57
1
1
0
0
255
243
143
127
64
127
127
255
226
15
120
17
15
15
125
25
43
57
1
1
0
0
255
226
15
110
15
70
16
37
25
43
57
1
1
0
0
255
226
15
100
14
69
16
34
25
43
57
1
1
0
0
255
226
15
117
15
121
15
126
25
43
57
1
1
0
0
255
243
143
127
64
127
127
255
226
16
10
17
42
15
116
25
43
57
1
1
0
0
255
226
16
3
16
22
16
25
25
43
57
1
1
0
0
255
226
15
118
14
93
16
34
25
43
57
1
1
0
0
255
226
16
2
15
88
15
127
25
43
57
1
1
0
0
255
243
143
127
64
127
127
255
226
16
24
17
53
15
106
25
43
57
1
1
0
0
255
226
16
20
16
99
16
8
25
43
57
1
1
0
0
255
226
16
5
15
1
16
28
25
43
57
1
1
0
0
255
226
16
12
15
54
16
1
25
43
57
1
1
0
0
255
226
16
35
17
40
15
100
25
43
57
1
1
0
0
255
243
143
127
64
127
127
255
226
16
38
17
34
15
120
25
43
57
1
1
0
0
255
226
16
17
15
49
16
22
25
43
57
1
1
0
0
255
226
16
12
15
21
16
4
25
43
57
1
1
0
0
255
226
16
33
17
0
15
99
25
43
57
1
1
0
0
255
243
143
127
64
127
127
255
226
16
43
17
77
15
109
25
43
57
1
1
0
0
255
226
16
23
15
105
16
19
25
43
57
1
1
0
0
255
226
16
13
15
6
16
10
25
43
57
1
1
0
0
255
226
16
30
16
81
15
102
25
43
57
1
1
0
0
255
243
143
127
64
127
127
255
226
16
45
17
93
15
100
25
43
57
1
1
0
0
255
226
16
31
16
33
16
12
25
43
57
1
1
0
0
255
226
16
13
14
124
16
15
25
43
57
1
1
0
0
255
226
16
24
16
19
15
108
25
43
57
1
1
0
0
255
243
143
127
64
127
127
255
226
16
42
17
84
15
94
25
43
57
1
1
0
0
255
226
16
30
16
85
16
3
25
43
57
1
1
0
0
255
226
16
14
15
4
16
19
25
43
57
1
1
0
0
255
226
16
20
15
89
15
118
25
43
57
1
1
0
0
255
243
143
127
64
127
127
255
226
16
39
17
60
15
94
25
43
57
1
1
0
0
255
226
16
34
17
8
15
122
25
43
57
1
1
0
0
255
226
16
12
15
23
16
20
25
43
57
1
1
0
0
255
226
16
9
15
32
15
127
25
43
57
1
1
0
0
255
226
16
28
17
13
15
95
25
43
57
1
1
0
0
255
243
143
127
64
127
127
255
226
16
33
17
42
15
113
25
43
57
1
1
0
0
255
226
16
13
15
59
16
21
25
43
57
1
1
0
0
255
226
16
7
14
124
16
9
25
43
57
1
1
0
0
255
226
16
24
16
91
15
102
25
43
57
1
1
0
0
255
243
143
127
64
127
127
255
226
16
32
17
65
15
108
25
43
57
1
1
0
0
255
226
16
14
15
109
16
20
25
43
57
1
1
0
0
255
226
16
1
14
105
16
17
25
43
57
1
1
0
0
255
226
16
15
16
28
15
112
25
43
57
1
1
0
0
255
243
143
127
64
127
127
255
226
16
31
17
69
15
104
25
43
57
1
1
0
0
255
226
16
19
16
37
16
15
25
43
57
1
1
0
0
255
226
16
0
14
104
16
26
25
43
57
1
1
0
0
255
226
16
8
15
98
15
122
25
43
57
1
1
0
0
255
243
143
127
64
127
127
255
226
16
29
17
54
15
103
25
43
57
1
1
0
0
255
226
16
22
16
89
16
8
25
43
57
1
1
0
0
255
226
16
3
14
119
16
29
25
43
57
1
1
0
0
255
226
16
2
15
42
16
4
25
43
57
1
1
0
0
255
243
143
127
64
127
127
255
226
16
22
17
25
15
105
25
43
57
1
1
0
0
255
226
16
26
17
16
16
0
25
43
57
1
1
0
0
255
226
16
5
15
31
16
32
25
43
57
1
1
0
0
255
226
15
127
15
6
16
13
25
43
57
1
1
0
0
255
243
143
127
64
127
127
255
226
16
16
16
112
15
107
25
43
57
1
1
0
0
255
226
16
24
17
48
15
118
25
43
57
1
1
0
0
255
226
16
7
15
76
16
29
25
43
57
1
1
0
0
255
226
16
0
14
112
16
20
25
43
57
1
1
0
0
255
243
143
127
64
127
127
255
226
16
13
16
60
15
112
25
43
57
1
1
0
0
255
226
16
23
17
67
15
111
25
43
57
1
1
0
0
255
226
16
9
16
5
16
22
25
43
57
1
1
0
0
255
226
15
125
14
104
16
26
25
43
57
1
1
0
0
255
226
16
7
16
3
15
120
25
43
57
1
1
0
0
255
243
143
127
64
127
127
255
226
16
26
17
67
15
107
25
43
57
1
1
0
0
255
226
16
19
16
65
16
15
25
43
57
1
1
0
0
255
226
15
127
14
111
16
30
25
43
57
1
1
0
0
255
226
16
3
15
71
16
0
25
43
57
1
1
0
0
255
243
143
127
64
127
127
255
226
16
24
17
45
15
105
25
43
57
1
1
0
0
255
226
16
20
16
125
16
6
25
43
57
1
1
0
0
255
226
15
127
15
13
16
32
25
43
57
1
1
0
0
255
226
16
0
15
28
16
8
25
43
57
1
1
0
0
255
243
143
127
64
127
127
255
226
16
20
17
12
15
105
25
43
57
1
1
0
0
255
226
16
23
17
36
15
123
25
43
57
1
1
0
0
255
226
16
2
15
51
16
29
25
43
57
1
1
0
0
255
226
15
124
14
122
16
17
25
43
57
1
1
0
0
255
243
143
127
64
127
127
255
226
16
16
16
94
15
110
25
43
57
1
1
0
0
255
226
16
26
17
65
15
115
25
43
57
1
1
0
0
255
226
16
10
15
108
16
27
25
43
57
1
1
0
0
255
226
15
124
14
108
16
26
25
43
57
1
1
0
0
255
243
143
127
64
127
127
255
226
16
12
16
38
15
118
25
43
57
1
1
0
0
255
226
16
30
17
74
15
111
25
43
57
1
1
0
0
255
226
16
15
16
37
16
21
25
43
57
1
1
0
0
255
226
15
126
14
106
16
28
25
43
57
1
1
0
0
255
243
143
127
64
127
127
255
226
16
5
15
102
15
123
25
43
57
1
1
0
0
255
226
16
26
17
59
15
106
25
43
57
1
1
0
0
255
226
16
20
16
94
16
12
25
43
57
1
1
0
0
255
226
16
0
14
125
16
32
25
43
57
1
1
0
0
255
226
16
2
15
50
16
6
25
43
57
1
1
0
0
255
243
143
127
64
127
127
255
226
16
21
17
29
15
106
25
43
57
1
1
0
0
255
226
16
20
17
11
16
2
25
43
57
1
1
0
0
255
226
15
127
15
27
16
31
25
43
57
1
1
0
0
255
226
15
125
15
8
16
12
25
43
57
1
1
0
0
255
243
143
127
64
127
127
255
226
16
16
16
114
15
106
25
43
57
1
1
0
0
255
226
16
22
17
51
15
119
25
43
57
1
1
0
0
255
226
16
4
15
72
16
28
25
43
57
1
1
0
0
255
226
15
123
14
109
16
19
25
43
57
1
1
0
0
255
243
143
127
64
127
127
255
226
16
12
16
63
15
111
25
43
57
1
1
0
0
255
226
16
25
17
66
15
112
25
43
57
1
1
0
0
255
226
16
12
16
2
16
23
25
43
57
1
1
0
0
255
226
15
124
14
101
16
26
25
43
57
1
1
0
0
255
243
143
127
64
127
127
255
226
16
6
16
2
15
120
25
43
57
1
1
0
0
255
226
16
23
17
65
15
107
25
43
57
1
1
0
0
255
226
16
11
16
58
16
15
25
43
57
1
1
0
0
255
226
15
119
14
105
16
29
25
43
57
1
1
0
0
255
243
143
127
64
127
127
255
226
16
1
15
69
15
126
25
43
57
1
1
0
0
255
226
16
22
17
40
15
103
25
43
57
1
1
0
0
255
226
16
20
16
111
16
5
25
43
57
1
1
0
0
255
226
15
125
15
1
16
30
25
43
57
1
1
0
0
255
243
143
127
64
127
127
255
226
15
124
15
21
16
8
25
43
57
1
1
0
0
255
226
16
17
17
5
15
106
25
43
57
1
1
0
0
255
226
16
20
17
25
15
125
25
43
57
1
1
0
0
255
226
15
127
15
41
16
32
25
43
57
1
1
0
0
255
226
15
121
14
116
16
17
25
43
57
1
1
0
0
255
243
143
127
64
127
127
255
226
16
13
16
86
15
110
25
43
57
1
1
0
0
255
226
16
23
17
52
15
116
25
43
57
1
1
0
0
255
226
16
4
15
92
16
26
25
43
57
1
1
0
0
255
226
15
118
14
94
16
22
25
43
57
1
1
0
0
255
243
143
127
64
127
127
255
226
16
6
16
25
15
114
25
43
57
1
1
0
0
255
226
16
22
17
61
15
109
25
43
57
1
1
0
0
255
226
16
12
16
25
16
21
25
43
57
1
1
0
0
255
226
15
122
14
98
16
29
25
43
57
1
1
0
0
255
243
143
127
64
127
127
255
226
16
1
15
98
15
124
25
43
57
1
1
0
0
255
226
16
22
17
51
15
106
25
43
57
1
1
0
0
255
226
16
17
16
80
16
11
25
43
57
1
1
0
0
255
226
15
126
14
114
16
31
25
43
57
1
1
0
0
255
243
143
127
64
127
127
255
226
16
1
15
45
16
4
25
43
57
1
1
0
0
255
226
16
21
17
25
15
106
25
43
57
1
1
0
0
255
226
16
20
17
5
16
2
25
43
57
1
1
0
0
255
226
15
127
15
17
16
32
25
43
57
1
1
0
0
255
243
143
127
64
127
127
255
226
15
125
15
0
16
12
25
43
57
1
1
0
0
255
226
16
15
16
110
15
108
25
43
57
1
1
0
0
255
226
16
22
17
39
15
122
25
43
57
1
1
0
0
255
226
16
2
15
62
16
30
25
43
57
1
1
0
0
255
243
143
127
64
127
127
255
226
15
123
14
102
16
19
25
43
57
1
1
0
0
255
226
16
9
16
53
15
111
25
43
57
1
1
0
0
255
226
16
23
17
55
15
112
25
43
57
1
1
0
0
255
226
16
7
15
114
16
25
25
43
57
1
1
0
0
255
226
15
120
14
90
16
27
25
43
57
1
1
0
0
255
243
143
127
64
127
127
255
226
16
6
16
0
15
120
25
43
57
1
1
0
0
255
226
16
21
17
57
15
109
25
43
57
1
1
0
0
255
226
16
11
16
49
16
18
25
43
57
1
1
0
0
255
226
15
121
14
101
16
32
25
43
57
1
1
0
0
255
243
143
127
64
127
127
255
226
15
126
15
66
16
2
25
43
57
1
1
0
0
255
226
16
16
17
35
15
108
25
43
57
1
1
0
0
255
226
16
11
16
103
16
8
25
43
57
1
1
0
0
255
226
15
115
14
119
16
33
25
43
57
1
1
0
0
255
243
143
127
64
127
127
255
226
15
114
15
12
16
9
25
43
57
1
1
0
0
255
226
16
5
16
123
15
106
25
43
57
1
1
0
0
255
226
16
8
17
10
15
126
25
43
57
1
1
0
0
255
226
15
113
15
20
16
28
25
43
57
1
1
0
0
255
243
143
127
64
127
127
255
226
15
103
14
86
16
10
25
43
57
1
1
0
0
255
226
15
120
16
44
15
101
25
43
57
1
1
0
0
255
226
16
0
16
127
15
108
25
43
57
1
1
0
0
255
226
15
111
15
38
16
20
25
43
57
1
1
0
0
255
243
143
127
64
127
127
255
226
15
103
14
56
16
16
25
43
57
1
1
0
0
255
226
15
122
15
126
15
109
25
43
57
1
1
0
0
255
226
16
10
17
35
15
109
25
43
57
1
1
0
0
255
226
15
126
15
125
16
26
25
43
57
1
1
0
0
255
243
143
127
64
127
127
255
226
15
109
14
77
16
35
25
43
57
1
1
0
0
255
226
15
120
15
84
16
3
25
43
57
1
1
0
0
255
226
16
10
17
40
15
115
25
43
57
1
1
0
0
255
226
16
2
16
67
16
18
25
43
57
1
1
0
0
255
226
15
113
14
107
16
36
25
43
57
1
1
0
0
255
243
143
127
64
127
127
255
226
15
121
15
47
16
9
25
43
57
1
1
0
0
255
226
16
17
17
30
15
109
25
43
57
1
1
0
0
255
226
16
20
17
10
16
7
25
43
57
1
1
0
0
255
226
16
1
15
26
16
36
25
43
57
1
1
0
0
255
243
143
127
64
127
127
255
226
16
0
15
13
16
16
25
43
57
1
1
0
0
255
226
16
20
16
122
15
113
25
43
57
1
1
0
0
255
226
16
28
17
53
15
125
25
43
57
1
1
0
0
255
226
16
9
15
76
16
35
25
43
57
1
1
0
0
255
243
143
127
64
127
127
255
226
15
127
14
118
16
25
25
43
57
1
1
0
0
255
226
16
16
16
72
15
117
25
43
57
1
1
0
0
255
226
16
28
17
67
15
118
25
43
57
1
1
0
0
255
226
16
12
15
127
16
30
25
43
57
1
1
0
0
255
243
143
127
64
127
127
255
226
15
126
14
103
16
30
25
43
57
1
1
0
0
255
226
16
11
16
11
15
122
25
43
57
1
1
0
0
255
226
16
27
17
67
15
109
25
43
57
1
1
0
0
255
226
16
17
16
56
16
17
25
43
57
1
1
0
0
255
243
143
127
64
127
127
255
226
16
2
14
110
16
28
25
43
57
1
1
0
0
255
226
16
11
15
88
15
119
25
43
57
1
1
0
0
255
226
16
33
17
68
15
83
25
43
57
1
1
0
0
255
226
16
30
17
15
15
96
25
43
57
1
1
0
0
255
243
143
127
64
127
127
255
226
16
16
15
33
15
105
25
43
57
1
1
0
0
255
226
16
17
15
29
15
73
25
43
57
1
1
0
0
255
226
16
18
16
93
15
44
25
43
57
1
1
0
0
255
226
15
104
16
26
15
89
25
43
57
1
1
0
0
255
226
15
31
13
81
16
40
25
43
57
1
1
0
0
255
243
143
127
64
127
127
255
226
14
101
12
57
16
98
25
43
57
1
1
0
0
255
226
14
81
13
66
17
17
25
43
57
1
1
0
0
255
226
14
110
13
120
17
77
25
43
57
1
1
0
0
255
226
15
35
12
87
18
8
25
43
57
1
1
0
0
255
243
143
127
64
127
127
255
226
15
97
12
98
17
126
25
43
57
1
1
0
0
255
226
16
27
15
34
17
79
25
43
57
1
1
0
0
255
226
16
54
17
37
17
61
25
43
57
1
1
0
0
255
226
16
46
16
72
17
79
25
43
57
1
1
0
0
255
243
143
127
64
127
127
255
226
16
29
15
86
17
67
25
43
57
1
1
0
0
255
226
16
39
17
2
17
10
25
43
57
1
1
0
0
255
226
16
52
18
87
16
90
25
43
57
1
1
0
0
255
226
16
40
17
92
16
87
25
43
57
1
1
0
0
255
243
143
127
64
127
127
255
226
16
11
15
91
16
68
25
43
57
1
1
0
0
255
226
16
12
15
127
16
9
25
43
57
1
1
0
0
255
226
16
31
17
85
15
86
25
43
57
1
1
0
0
255
226
16
32
17
44
15
93
25
43
57
1
1
0
0
255
243
143
127
64
127
127
255
226
16
13
15
52
15
110
25
43
57
1
1
0
0
255
226
16
9
15
38
15
83
25
43
57
1
1
0
0
255
226
16
29
17
17
15
46
25
43
57
1
1
0
0
255
226
16
33
17
64
15
57
25
43
57
1
1
0
0
255
243
143
127
64
127
127
255
226
16
10
15
80
15
94
25
43
57
1
1
0
0
255
226
16
1
14
123
15
84
25
43
57
1
1
0
0
255
226
16
19
16
78
15
48
25
43
57
1
1
0
0
255
226
16
30
17
72
15
49
25
43
57
1
1
0
0
255
226
16
14
16
0
15
89
25
43
57
1
1
0
0
255
243
143
127
64
127
127
255
226
16
0
14
105
15
92
25
43
57
1
1
0
0
255
226
16
11
16
16
15
58
25
43
57
1
1
0
0
255
226
16
28
17
72
15
49
25
43
57
1
1
0
0
255
226
16
17
16
56
15
87
25
43
57
1
1
0
0
255
243
143
127
64
127
127
255
226
15
127
14
108
15
101
25
43
57
1
1
0
0
255
226
16
3
15
77
15
71
25
43
57
1
1
0
0
255
226
16
23
17
44
15
51
25
43
57
1
1
0
0
255
226
16
19
16
107
15
83
25
43
57
1
1
0
0
255
243
143
127
64
127
127
255
226
15
124
14
126
15
108
25
43
57
1
1
0
0
255
226
15
123
15
23
15
85
25
43
57
1
1
0
0
255
226
16
18
17
8
15
57
25
43
57
1
1
0
0
255
226
16
22
17
15
15
79
25
43
57
1
1
0
0
255
243
143
127
64
127
127
255
226
16
0
15
28
15
115
25
43
57
1
1
0
0
255
226
15
123
14
112
15
101
25
43
57
1
1
0
0
255
226
16
12
16
85
15
66
25
43
57
1
1
0
0
255
226
16
20
17
40
15
76
25
43
57
1
1
0
0
255
243
143
127
64
127
127
255
226
16
0
15
73
15
117
25
43
57
1
1
0
0
255
226
15
115
14
84
15
113
